-----False Positives Indices-----
11
14
18
21
25
28
32
34
40
42
46
50
52
54
56
58
64
69
74
76
79
81
84
88
91
94
97
99
102
105
109
111
114
116
121
124
127
129
132
135
141
145
147
151
160
165
167
171
173
177
180
182
186
190
196
201
204
207
210
212
214
217
219
221
225
230
236
238
244
247
249
252
254
258
262
266
270
272
274
277
282
284
288
292
295
303
309
313
317
319
322
335
337
344
348
352
359
362
365
368
373
377
381
383
389
391
393
398
403
405
408
412
417
422
427
430
433
435
438
441
445
449
452
455
458
462
465
468
471
475
477
481
484
487
490
493
498
501
506
508
513
515
517
522
526
530
532
534
537
539
544
546
549
553
555
558
560
562
569
573
579
581
585
587
589
594
600
602
606
608
611
614
616
618
623
626
630
634
639
643
645
648
653
656
661
663
666
670
673
679
687
693
699
703
705
709
715
717
723
726
729
731
733
735
739
744
747
750
752
757
760
763
767
769
773
776
778
780
783
786
789
793
797
800
802
804
807
811
815
819
825
828
830
833
837
839
841
844
847
849
853
856
861
867
869
871
875
877
879
882
885
892
897
905
908
911
914
917
920
923
927
929
933
938
940
942
948
951
955
959
962
964
967
971
975
980
984
987
989
992
996
1000
1005
1008
1011
1017
1021
1027
1033
1037
1040
1043
1047
1050
1056
1059
1063
1066
1068
1073
1076
1082
1085
1088
1093
1096
1099
1110
1115
1118
1122
1124
1126
1131
1134
1138
1142
1144
1148
1152
1154
1160
1164
1168
1171
1175
1178
1181
1186
1189
1197
1201
1203
1205
1207
1209
1211
1215
1217
1220
1223
1227
1229
1232
1240
1244
1250
1255
1260
1265
1268
1271
1278
1280
1285
1288
1292
1294
1296
1298
1303
1306
1310
1313
1316
1321
1324
1327
1329
1331
1339
1342
1344
1348
1350
1355
1358
1361
1363
1368
1371
1376
1378
1383
1386
1388
1391
1394
1396
1399
1401
1403
1405
1409
1412
1415
1423
1428
1431
1435
1441
1443
1445
1448
1453
1456
1458
1463
1468
1470
1473
1476
1478
1482
1487
1489
1491
1494
1500
1503
1505
1508
1511
1515
1519
1521
1523
1527
1538
1542
1546
1549
1552
1554
1559
1562
1568
1571
1574
1578
1581
1583
1586
1589
1593
1596
1599
1603
1607
1614
1622
1629
1633
1639
1641
1644
1648
1650
1652
1654
1656
1658
1661
1664
1667
1669
1675
1677
1679
1681
1684
1687
1694
1696
1698
1700
1704
1707
1715
1717
1721
1724
1728
1733
1737
1740
1744
1746
1749
1754
1759
1763
1766
1769
1772
1776
1778
1781
1785
1788
1791
1793
1797
1800
1805
1808
1812
1815
1818
1820
1822
1826
1833
1837
1840
1844
1847
1854
1856
1859
1862
1865
1869
1871
1883
1885
1890
1893
1895
1898
1902
1905
1907
1910
1913
1915
1917
1920
1923
1926
1933
1935
1937
1943
1946
1952
1955
1957
1959
1963
1966
1972
1976
1981
1985
1988
1991
1994
1997
1999
2003
2006
2008
2012
2014
2016
2018
2021
2023
2025
2027
2031
2034
2037
2042
2044
2046
2050
2052
2055
2059
2061
2063
2065
2067
2072
2075
2077
2079
2081
2084
2087
2090
2096
2098
2101
2105
2107
2109
2112
2116
2118
2121
2123
2129
2131
2134
2136
2139
2143
2149
2151
2155
2161
2165
2168
2171
2173
2175
2178
2180
2183
2185
2188
2190
2194
2196
2205
2209
2213
2216
2219
2225
2230
2237
2243
2246
2249
2253
2255
2257
2261
2264
2268
2270
2273
2277
2279
2283
2288
2293
2299
2303
2310
2312
2314
2318
2324
2329
2333
2335
2341
2344
2348
2351
2353
2355
2360
2362
2364
2368
2371
2375
2382
2384
2386
2390
2393
2395
2397
2400
2403
2410
2413
2415
2417
2420
2422
2426
2429
2431
2437
2440
2443
2447
2449
2452
2456
2459
2461
2467
2469
2474
2477
2479
2483
2485
2489
2493
2497
2501
2504
2509
2512
2514
2519
2524
2526
2529
2534
2537
2541
2544
2546
2548
2551
2554
2558
2560
2564
2567
2571
2575
2579
2582
2587
2593
2596
2598
2600
2604
2606
2610
2613
2615
2619
2622
2624
2629
2634
2637
2639
2643
2645
2647
2650
2653
2656
2660
2662
2666
2668
2673
2675
2678
2680
2683
2685
2689
2693
2696
2703
2709
2711
2715
2722
2727
2732
2735
2742
2745
2748
2753
2756
2758
2762
2768
2772
2774
2777
2779
2782
2784
2786
2791
2793
2796
2798
2801
2803
2809
2813
2816
2820
2823
2826
2828
2832
2834
2839
2845
2849
2852
2855
2857
2862
2869
2871
2873
2875
2879
2882
2886
2888
2891
2894
2897
2899
2902
2904
2906
2912
2915
2918
2921
2923
2925
2929
2933
2937
2943
2948
2953
2956
2963
2966
2972
2978
2980
2984
2986
2989
2991
2993
2997
2999
3004
3008
3012
3014
3017
3025
3027
3032
3035
3038
3044
3046
3049
3055
3057
3060
3065
3070
3072
3074
3079
3086
3089
3092
3095
3098
3101
3103
3110
3112
3115
3119
3122
3125
3127
3131
3133
3136
3138
3140
3142
3144
3148
3151
3156
3158
3160
3163
3166
3172
3174
3176
3178
3180
3183
3187
3190
3198
3204
3208
3211
3215
3217
3221
3224
3227
3232
3234
3236
3238
3241
3243
3245
3249
3251
3254
3258
3260
3266
3270
3273
3275
3278
3281
3283
3287
3290
3293
3297
3301
3305
3308
3311
3314
3317
3320
3323
3326
3329
3332
3335
3338
3344
3353
3355
3358
3361
3363
3367
3371
3377
3380
3386
3389
3394
3396
3398
3404
3413
3416
3419
3422
3425
3427
3432
3437
3440
3442
3444
3446
3452
3457
3460
3462
3471
3477
3481
3485
3488
3492
3495
3497
3500
3505
3509
3511
3514
3516
3519
3522
3527
3529
3532
3535
3540
3543
3545
3548
3553
3556
3559
3562
3566
3569
3573
3577
3581
3584
3586
3588
3592
3594
3596
3601
3608
3613
3618
3620
3623
3625
3627
3629
3631
3634
3638
3641
3644
3646
3649
3652
3656
3660
3663
3665
3668
3671
3676
3680
3683
3685
3687
3695
3697
3699
3701
3704
3707
3713
3716
3719
3721
3725
3728
3730
3732
3737
3742
3746
3750
3754
3757
3760
3763
3767
3769
3772
3775
3780
3786
3791
3796
3799
3806
3811
3815
3817
3823
3825
3827
3833
3836
3839
3845
3848
3852
3856
3859
3861
3866
3869
3871
3873
3877
3879
3883
3890
3893
3895
3898
3905
3909
3911
3913
3915
3917
3919
3925
3929
3932
3935
3938
3941
3948
3950
3953
3956
3959
3961
3963
3965
3968
3971
3975
3977
3980
3982
3985
3989
3992
3994
4000
4004
4009
4013
4016
4019
4028
4031
4034
4036
4039
4042
4045
4049
4051
4054
4057
4060
4065
4069
4071
4073
4076
4079
4081
4084
4087
4092
4096
4099
4103
4111
4115
4119
4124
4129
4131
4133
4139
4144
4147
4152
4155
4157
4159
4162
4166
4170
4172
4175
4177
4179
4183
4186
4189
4192
4196
4199
4203
4205
4207
4211
4213
4216
4220
4223
4225
4229
4237
4243
4246
4249
4253
4256
4259
4261
4268
4272
4274
4277
4280
4283
4286
4290
4295
4298
4302
4305
4307
4310
4312
4315
4317
4319
4322
4325
4327
4329
4332
4334
4339
4341
4346
4354
4359
4361
4364
4367
4370
4372
4376
4378
4380
4385
4387
4390
4393
4402
4405
4408
4410
4412
4417
4422
4424
4426
4430
4435
4437
4441
4444
4447
4451
4453
4455
4457
4462
4465
4468
4471
4474
4477
4479
4485
4487
4495
4501
4512
4514
4516
4520
4522
4524
4527
4529
4531
4535
4538
4545
4550
4552
4555
4561
4565
4574
4578
4584
4592
4596
4598
4602
4607
4610
4616
4619
4624
4630
4633
4636
4638
4643
4648
4651
4655
4658
4663
4669
4676
4678
4682
4685
4687
4691
4695
4697
4700
4703
4705
4708
4712
4715
4718
4721
4724
4727
4730
4733
4735
4737
4739
4742
4745
4747
4750
4754
4756
4763
4768
4771
4774
4777
4781
4786
4789
4796
4798
4801
4805
4808
4811
4814
4816
4818
4820
4830
4836
4840
4844
4848
4853
4862
4865
4868
4870
4873
4876
4879
4883
4885
4890
4894
4898
4906
4908
4913
4919
4923
4925
4928
4933
4936
4939
4945
4950
4953
4956
4959
4965
4967
4971
4977
4984
4992
4996
4999
5002
5006
5008
5013
5015
5017
5019
5021
5026
5029
5032
5035
5037
5039
5042
5045
5047
5050
5054
5057
5061
5063
5066
5069
5071
5075
5078
5082
5087
5090
5094
5096
5099
5101
5105
5107
5110
5113
5117
5120
5124
5128
5137
5141
5146
5148
5151
5154
5159
5162
5168
5171
5174
5180
5185
5189
5191
5197
5201
5203
5208
5211
5214
5218
5221
5229
5233
5242
5245
5249
5252
5254
5257
5263
5268
5272
5278
5282
5284
5289
5291
5293
5296
5302
5304
5306
5312
5317
5323
5325
5327
5332
5335
5338
5340
5343
5345
5349
5352
5355
5360
5364
5367
5372
5378
5381
5384
5387
5392
5395
5405
5410
5412
5414
5417
5419
5423
5426
5428
5431
5433
5436
5438
5443
5448
5451
5455
5458
5460
5465
5470
5474
5479
5484
5489
5491
5497
5501
5505
5507
5511
5513
5519
5523
5525
5529
5532
5534
5536
5540
5543
5548
5552
5558
5560
5563
5565
5568
5571
5574
5578
5580
5583
5585
5588
5592
5594
5601
5604
5606
5610
5614
5619
5621
5624
5627
5633
5635
5638
5641
5645
5648
5651
5654
5658
5660
5664
5666
5668
5674
5680
5684
5689
5695
5699
5702
5710
5713
5715
5717
5720
5726
5730
5732
5736
5738
5742
5746
5750
5753
5759
5762
5765
5769
5771
5773
5775
5779
5782
5785
5788
5791
5793
5795
5798
5802
5804
5807
5811
5816
5819
5821
5825
5828
5833
5836
5838
5840
5843
5845
5848
5850
5855
5860
5862
5865
5870
5872
5876
5878
5882
5884
5887
5891
5893
5895
5897
5899
5905
5909
5911
5913
5919
5925
5928
5930
5934
5941
5944
5947
5950
5953
5957
5960
5963
5966
5968
5971
5975
5979
5982
5985
5989
5993
5996
5998
6002
6004
6007
6015
6020
6023
6025
6031
6042
6044
6046
6052
6055
6058
6060
6062
6066
6073
6077
6081
6085
6089
6096
6104
6112
6114
6118
6121
6123
6125
6129
6131
6133
6135
6139
6145
6149
6151
6155
6160
6163
6166
6169
6172
6176
6178
6181
6184
6187
6193
6196
6201
6204
6208
6213
6217
6221
6224
6227
6230
6232
6240
6247
6251
6254
6256
6260
6262
6265
6268
6270
6274
6278
6282
6287
6292
6296
6299
6301
6306
6312
6314
6316
6319
6323
6328
6331
6333
6335
6340
6343
6347
6350
6356
6359
6361
6366
6368
6370
6373
6379
6383
6388
6392
6399
6404
6408
6413
6418
6422
6427
6429
6434
6436
6439
6442
6448
6453
6455
6459
6462
6464
6471
6476
6479
6482
6484
6487
6490
6493
6495
6499
6502
6506
6508
6515
6517
6519
6521
6524
6527
6529
6534
6538
6541
6545
6551
6554
6559
6562
6565
6570
6575
6579
6583
6586
6589
6593
6601
6604
6606
6609
6611
6613
6615
6619
6624
6629
6634
6637
6642
6644
6649
6652
6656
6658
6661
6664
6671
6677
6685
6689
6691
6695
6700
6704
6707
6709
6714
6719
6721
6724
6728
6731
6735
6738
6740
6744
6752
6755
6759
6763
6766
6770
6774
6776
6779
6782
6785
6790
6796
6801
6804
6806
6810
6812
6814
6816
6819
6825
6830
6837
6843
6846
6851
6856
6861
6864
6868
6870
6874
6878
6881
6883
6886
6892
6894
6898
6901
6904
6906
6910
6916
6919
6921
6925
6927
6929
6932
6935
6938
6940
6943
6946
6952
6954
6957
6964
6967
6970
6973
6975
6978
6986
6988
6991
6993
6999
7001
7003
7008
7011
7013
7018
7022
7024
7030
7032
7035
7038
7040
7045
7051
7057
7060
7063
7066
7070
7077
7080
7082
7087
7092
7094
7096
7098
7101
7104
7109
7112
7114
7120
7126
7129
7135
7137
7141
7145
7147
7150
7153
7156
7158
7162
7165
7168
7171
7173
7177
7180
7184
7188
7194
7196
7199
7204
7207
7209
7212
7215
7219
7222
7224
7226
7228
7233
7238
7241
7244
7247
7249
7251
7255
7261
7265
7267
7270
7274
7277
7279
7281
7285
7287
7289
7291
7294
7298
7305
7311
7314
7317
7321
7324
7330
7334
7336
7339
7341
7345
7347
7350
7352
7354
7357
7362
7365
7368
7371
7375
7379
7385
7390
7392
7395
7397
7401
7405
7409
7412
7414
7417
7419
7424
7428
7430
7433
7435
7440
7442
7444
7446
7450
7453
7456
7458
7463
7465
7469
7476
7483
7485
7492
7498
7501
7504
7511
7513
7518
7520
7523
7528
7531
7535
7537
7540
7543
7547
7553
7558
7561
7563
7567
7570
7572
7575
7577
7579
7583
7585
7590
7594
7600
7602
7607
7610
7614
7620
7624
7626
7630
7633
7636
7638
7642
7644
7647
7650
7653
7657
7660
7662
7665
7667
7671
7675
7679
7684
7687
7690
7693
7699
7702
7705
7709
7711
7716
7719
7721
7726
7729
7735
7739
7742
7745
7749
7752
7759
7765
7767
7771
7773
7775
7779
7781
7790
7792
7794
7798
7801
7804
7811
7820
7828
7830
7836
7838
7840
7842
7846
7848
7850
7853
7857
7861
7865
7870
7872
7876
7882
7885
7888
7890
7893
7896
7898
7901
7905
7909
7911
7914
7916
7921
7926
7930
7933
7937
7942
7949
7952
7956
7959
7963
7965
7967
7974
7978
7980
7990
7995
7997
7999
8002
8008
8010
8012
8014
8021
8025
8028
8032
8035
8038
8044
8046
8049
8052
8058
8060
8062
8064
8072
8078
8082
8087
8090
8092
8095
8097
8099
8101
8104
8110
8112
8114
8117
8125
8129
8132
8134
8136
8139
8141
8146
8151
8154
8161
8163
8167
8170
8172
8179
8182
8185
8187
8194
8197
8200
8205
8207
8209
8211
8221
8223
8226
8228
8232
8236
8242
8245
8247
8250
8256
8258
8260
8262
8266
8269
8272
8280
8283
8286
8291
8296
8301
8304
8310
8316
8323
8326
8334
8338
8343
8346
8350
8353
8356
8359
8363
8366
8370
8375
8377
8379
8382
8386
8391
8394
8397
8399
8402
8406
8409
8413
8416
8419
8422
8427
8429
8431
8434
8436
8439
8443
8445
8447
8458
8461
8464
8466
8472
8476
8478
8481
8484
8490
8493
8497
8501
8507
8515
8522
8525
8528
8532
8536
8539
8543
8545
8547
8549
8551
8554
8557
8560
8563
8566
8569
8572
8574
8585
8592
8597
8601
8603
8606
8608
8611
8614
8616
8619
8623
8626
8628
8631
8634
8637
8639
8643
8646
8649
8651
8655
8658
8662
8668
8673
8676
8678
8683
8686
8692
8695
8698
8701
8703
8706
8710
8714
8722
8724
8726
8729
8733
8735
8742
8744
8749
8755
8760
8766
8768
8773
8779
8784
8788
8794
8800
8803
8806
8810
8813
8823
8827
8830
8838
8842
8844
8848
8851
8854
8856
8860
8863
8865
8869
8874
8877
8880
8885
8887
8890
8892
8895
8898
8901
8904
8909
8914
8919
8923
8928
8934
8941
8945
8947
8951
8955
8960
8962
8964
8967
8970
8972
8974
8978
8983
8986
8990
8993
8998
9000
9003
9007
9013
9016
9018
9021
9024
9033
9038
9040
9042
9044
9046
9048
9052
9054
9058
9061
9064
9066
9070
9076
9079
9085
9089
9091
9093
9096
9099
9104
9107
9109
9114
9117
9123
9127
9130
9133
9139
9142
9144
9148
9150
9154
9156
9160
9163
9167
9173
9175
9178
9180
9187
9190
9193
9195
9199
9202
9205
9208
9211
9216
9221
9227
9231
9234
9237
9241
9243
9246
9250
9256
9259
9265
9268
9270
9274
9276
9280
9283
9288
9290
9294
9297
9299
9301
9304
9306
9310
9316
9318
9320
9322
9325
9331
9335
9341
9349
9357
9361
9364
9366
9369
9374
9376
9380
9382
9386
9389
9391
9396
9400
9402
9404
9406
9409
9412
9414
9417
9422
9426
9433
9436
9438
9440
9442
9447
9451
9457
9462
9466
9468
9472
9474
9478
9481
9484
9487
9490
9493
9498
9502
9505
9511
9513
9517
9520
9523
9526
9530
9532
9534
9537
9539
9542
9544
9547
9552
9561
9564
9567
9570
9573
9576
9579
9581
9583
9586
9588
9592
9594
9598
9600
9603
9607
9612
9615
9619
9622
9624
9629
9636
9643
9649
9655
9659
9661
9664
9667
9669
9671
9676
9678
9681
9684
9691
9694
9697
9700
9705
9709
9711
9715
9718
9723
9726
9730
9732
9735
9739
9742
9745
9747
9750
9754
9756
9763
9769
9772
9775
9778
9781
9783
9787
9790
9796
9798
9800
9804
9806
9808
9811
9814
9816
9819
9826
9828
9832
9837
9842
9844
9849
9852
9859
9861
9865
9868
9871
9876
9880
9882
9885
9887
9890
9892
9896
9898
9901
9903
9905
9907
9911
9922
9924
9928
9931
9935
9938
9940
9944
9947
9950
9954
9958
9962
9967
9969
9972
9974
9977
9982
9984
9988
9995
9999
10005
10009
10016
10021
10027
10030
10033
10036
10038
10041
10045
10049
10051
10056
10060
10063
10066
10069
10072
10074
10076
10078
10080
10083
10085
10087
10089
10092
10094
10099
10103
10105
10107
10110
10113
10115
10118
10120
10122
10126
10128
10132
10134
10136
10138
10141
10144
10146
10151
10153
10158
10161
10165
10170
10173
10176
10182
10186
10188
10192
10195
10197
10201
10204
10207
10210
10212
10215
10220
10222
10224
10228
10231
10233
10237
10242
10249
10254
10257
10260
10268
10274
10277
10279
10281
10284
10287
10290
10294
10296
10299
10303
10306
10308
10310
10315
10319
10324
10327
10331
10333
10335
10339
10342
10344
10349
10352
10354
10357
10364
10366
10369
10373
10381
10384
10386
10390
10392
10396
10399
10401
10404
10407
10410
10414
10416
10418
10422
10424
10428
10431
10441
10444
10448
10451
10455
10459
10462
10464
10472
10477
10480
10482
10484
10486
10490
10496
10499
10502
10504
10508
10514
10518
10522
10528
10531
10534
10536
10542
10549
10553
10558
10562
10564
10566
10568
10572
10575
10581
10584
10587
10592
10595
10599
10603
10609
10611
10615
10620
10623
10625
10627
10629
10632
10634
10639
10644
10647
10651
10653
10656
10660
10663
10665
10668
10671
10673
10675
10677
10680
10688
10692
10695
10698
10701
10705
10708
10711
10716
10720
10723
10725
10727
10729
10731
10734
10738
10741
10744
10746
10749
10752
10756
10760
10765
10772
10778
10782
10789
10792
10794
10799
10804
10806
10810
10812
10815
10818
10821
10824
10826
10828
10830
10832
10834
10836
10839
10842
10844
10848
10850
10854
10860
10863
10867
10871
10876
10879
10881
10885
10887
10890
10894
10898
10900
10902
10904
10908
10913
10917
10919
10921
10923
10926
10930
10933
10938
10940
10942
10947
10953
10962
10966
10968
10970
10973
10977
10980
10983
10985
10989
10993
10995
10999
11002
11007
11012
11016
11020
11023
11027
11030
11032
11037
11041
11044
11049
11053
11058
11063
11067
11072
11074
11076
11079
11083
11085
11091
11095
11100
11104
11106
11110
11113
11118
11122
11126
11129
11132
11137
11139
11142
11144
11146
11149
11155
11158
11166
11172
11174
11179
11182
11188
11190
11193
11201
11204
11207
11209
11214
11216
11218
11220
11225
11230
11232
11238
11240
11244
11246
11248
11254
11256
11260
11263
11265
11271
11275
11279
11282
11289
11294
11301
11306
11310
11315
11320
11325
11329
11331
11334
11337
11339
11344
11346
11349
11352
11355
11359
11361
11364
11367
11374
11376
11380
11382
11389
11392
11394
11396
11399
11401
11404
11407
11410
11412
11416
11420
11424
11427
11430
11433
11437
11440
11442
11445
11447
11449
11451
11453
11456
11461
11466
11469
11475
11482
11486
11488
11491
11494
11500
11503
11506
11508
11513
11517
11521
11523
11525
11527
11530
11533
11536
11542
11546
11552
11556
11561
11568
11570
11573
11581
11586
11590
11592
11594
11596
11599
11603
11605
11609
11613
11620
11623
11626
11633
11635
11638
11640
11643
11646
11650
11653
11658
11660
11663
11665
11671
11673
11677
11679
11683
11689
11692
11694
11696
11698
11703
11707
11717
11719
11725
11727
11729
11733
11736
11739
11742
11745
11749
11751
11754
11757
11759
11763
11766
11770
11773
11776
11779
11787
11790
11792
11801
11807
11810
11812
11815
11818
11821
11823
11825
11827
11833
11835
11837
11840
11843
11846
11851
11854
11858
11863
11866
11872
11878
11880
11883
11885
11888
11891
11895
11897
11899
11902
11908
11913
11917
11922
11925
11928
11931
11934
11937
11941
11945
11948
11950
11952
11955
11958
11962
11968
11971
11975
11979
11982
11985
11988
11993
11998
12000
12002
12008
12014
12017
12019
12023
12025
12027
12036
12039
12041
12046
12048
12052
12056
12059
12061
12066
12069
12071
12075
12078
12081
12084
12087
12091
12095
12098
12101
12103
12107
12112
12115
12119
12122
12125
12127
12130
12133
12136
12141
12144
12149
12154
12159
12161
12169
12173
12175
12178
12181
12183
12185
12190
12192
12194
12199
12201
12203
12206
12211
12213
12216
12219
12223
12226
12228
12230
12234
12239
12244
12253
12260
12264
12266
12270
12276
12280
12282
12286
12288
12290
12292
12294
12296
12300
12304
12308
12310
12316
12318
12321
12324
12327
12329
12331
12333
12336
12338
12341
12343
12347
12350
12352
12355
12358
12360
12364
12370
12373
12375
12377
12382
12385
12388
12393
12396
12399
12401
12403
12409
12412
12415
12418
12420
12423
12428
12433
12436
12438
12442
12447
12451
12456
12461
12467
12470
12473
12475
12478
12482
12484
12486
12489
12494
12496
12501
12504
12508
12511
12514
12516
12518
12522
12525
12528
12532
12536
12539
12546
12551
12556
12560
12562
12564
12566
12570
12573
12577
12579
12582
12586
12588
12593
12595
12598
12606
12610
12616
12620
12622
12626
12628
12633
12636
12639
12641
12645
12647
12651
12654
12658
12660
12663
12666
12672
12677
12682
12691
12697
12702
12706
12711
12714
12718
12720
12723
12726
12730
12732
12736
12739
12743
12748
12751
12753
12756
12758
12760
12762
12765
12767
12771
12774
12778
12780
12783
12786
12794
12797
12802
12804
12808
12813
12816
12819
12827
12831
12834
12837
12843
12845
12847
12849
12854
12858
12861
12864
12866
12872
12874
12880
12882
12885
12888
12891
12895
12897
12903
12906
12909
12915
12921
12929
12937
12941
12944
12947
12951
12954
12959
12963
12967
12970
12972
12975
12981
12984
12986
12989
12993
12998
13002
13005
13009
13014
13016
13019
13021
13024
13026
13030
13033
13035
13038
13040
13044
13048
13050
13053
13056
13059
13061
13068
13072
13074
13080
13085
13088
13090
13092
13095
13098
13101
13103
13105
13108
13110
13113
13119
13122
13127
13132
13136
13140
13143
13145
13149
13152
13155
13159
13162
13164
13167
13170
13173
13180
13185
13188
13190
13193
13196
13200
13202
13205
13210
13215
13220
13223
13229
13237
13242
13247
13250
13254
13257
13259
13261
13267
13271
13275
13281
13284
13288
13291
13294
13300
13303
13307
13310
13314
13316
13320
13325
13327
13332
13334
13337
13340
13344
13347
13350
13352
13354
13356
13359
13361
13366
13369
13372
13374
13376
13380
13382
13386
13389
13392
13396
13403
13405
13407
13410
13413
13416
13419
13422
13425
13430
13434
13436
13440
13443
13447
13450
13453
13457
13460
13468
13470
13472
13474
13476
13479
13482
13485
13491
13493
13496
13498
13506
13508
13512
13515
13517
13520
13524
13526
13529
13531
13538
13543
13550
13558
13561
13563
13566
13568
13571
13573
13576
13578
13581
13584
13587
13589
13593
13595
13600
13603
13607
13611
13615
13617
13622
13626
13629
13631
13635
13637
13643
13646
13648
13651
13656
13660
13662
13665
13669
13671
13674
13679
13683
13685
13688
13691
13693
13695
13699
13703
13706
13709
13718
13721
13727
13730
13734
13737
13742
13745
13749
13751
13757
13761
13765
13767
13770
13772
13776
13781
13787
13793
13801
13807
13811
13813
13817
13823
13827
13829
13831
13833
13835
13839
13841
13845
13848
13850
13852
13854
13857
13859
13862
13864
13869
13874
13879
13881
13884
13887
13890
13892
13895
13898
13902
13905
13910
13912
13915
13917
13919
13921
13923
13926
13929
13931
13938
13944
13946
13950
13954
13958
13961
13963
13965
13972
13974
13976
13980
13983
13986
13989
13995
13998
14000
14004
14009
14014
14022
14027
14031
14033
14037
14040
14044
14048
14052
14058
14061
14065
14068
14073
14076
14079
14081
14086
14089
14092
14097
14107
14111
14114
14116
14118
14123
14127
14129
14131
14133
14136
14139
14141
14143
14147
14149
14155
14157
14163
14169
14174
14176
14180
14184
14186
14188
14191
14193
14196
14199
14202
14206
14208
14210
14213
14215
14217
14219
14222
14224
14227
14229
14233
14236
14238
14241
14244
14248
14251
14255
14259
14268
14273
14277
14280
14283
14286
14289
14292
14294
14298
14302
14304
14307
14312
14316
14319
14324
14328
14330
14336
14339
14342
14346
14350
14355
14362
14367
14369
14375
14378
14381
14385
14388
14391
14393
14398
14401
14404
14406
14409
14414
14418
14422
14424
14426
14428
14430
14433
14438
14442
14444
14448
14451
14453
14456
14459
14462
14466
14469
14472
14475
14478
14481
14483
14486
14488
14492
14497
14499
14501
14503
14505
14508
14510
14514
14518
14521
14525
14533
14537
14543
14547
14551
14556
14559
14562
14565
14568
14570
14572
14575
14577
14580
14587
14589
14593
14595
14597
14601
14603
14606
14608
14616
14624
14626
14630
14633
14636
14640
14645
14648
14651
14653
14655
14658
14663
14665
14667
14669
14673
14679
14686
14690
14695
14699
14705
14707
14709
14711
14714
14719
14721
14724
14727
14729
14732
14736
14739
14742
14745
14748
14753
14755
14759
14763
14766
14769
14776
14781
14784
14787
14790
14796
14799
14801
14809
14811
14813
14815
14819
14823
14827
14830
14835
14840
14844
14847
14849
14853
14859
14862
14866
14872
14875
14877
14880
14883
14887
14889
14891
14895
14898
14901
14907
14912
14914
14919
14923
14929
14931
14933
14938
14941
14946
14948
14952
14958
14964
14967
14970
14973
14980
14983
14985
14987
14990
14992
14994
14997
14999
15003
15006
15008
15013
15017
15021
15026
15031
15033
15036
15039
15044
15049
15052
15056
15058
15061
15066
15068
15073
15075
15078
15081
15083
15087
15090
15096
15098
15101
15105
15107
15110
15114
15116
15118
15121
15123
15126
15133
15136
15138
15143
15148
15156
15161
15167
15172
15174
15177
15180
15182
15186
15188
15191
15194
15197
15201
15204
15207
15210
15213
15215
15219
15222
15224
15229
15233
15235
15242
15247
15251
15255
15258
15263
15267
15270
15273
15277
15282
15285
15287
15291
15294
15298
15302
15307
15309
15316
15319
15324
15326
15330
15334
15336
15339
15341
15344
15348
15350
15354
15357
15360
15362
15364
15366
15369
15371
15377
15384
15389
15392
15396
15399
15405
15410
15414
15416
15418
15421
15423
15425
15428
15431
15434
15438
15441
15444
15446
15450
15457
15459
15461
15463
15466
15470
15476
15479
15482
15485
15488
15490
15494
15497
15503
15508
15510
15512
15514
15518
15523
15529
15532
15536
15540
15545
15552
15554
15557
15560
15563
15567
15570
15573
15575
15577
15581
15584
15589
15593
15595
15598
15600
15602
15611
15618
15622
15626
15628
15631
15635
15641
15644
15649
15654
15657
15659
15663
15666
15671
15673
15679
15685
15692
15694
15698
15701
15705
15707
15709
15714
15719
15722
15725
15728
15731
15736
15740
15744
15747
15749
15752
15757
15761
15763
15765
15767
15770
15773
15777
15780
15783
15786
15789
15792
15794
15797
15800
15804
15812
15817
15819
15822
15825
15828
15831
15834
15837
15843
15846
15848
15852
15858
15860
15863
15865
15867
15869
15873
15876
15879
15883
15887
15895
15902
15905
15912
15915
15917
15919
15921
15923
15925
15929
15931
15934
15939
15941
15944
15950
15955
15959
15964
15966
15968
15971
15975
15978
15981
15983
15989
15992
15999
16003
16005
16009
16011
16013
16018
16022
16024
16026
16030
16034
16039
16043
16046
16050
16053
16055
16057
16059
16065
16068
16070
16073
16076
16078
16080
16083
16086
16091
16095
16098
16101
16104
16106
16108
16113
16117
16119
16121
16124
16128
16130
16132
16138
16141
16143
16152
16156
16159
16161
16165
16167
16170
16173
16176
16178
16181
16183
16185
16187
16190
16192
16196
16203
16207
16210
16214
16218
16220
16224
16227
16229
16232
16234
16240
16242
16247
16250
16256
16259
16262
16264
16266
16272
16274
16277
16281
16283
16287
16290
16292
16295
16299
16305
16311
16314
16316
16320
16331
16334
16337
16341
16344
16346
16349
16352
16354
16356
16359
16361
16364
16368
16374
16376
16379
16383
16385
16387
16390
16394
16400
16408
16413
16417
16420
16423
16425
16429
16432
16434
16436
16439
16444
16448
16451
16456
16458
16462
16466
16468
16473
16478
16484
16486
16488
16490
16493
16495
16498
16502
16504
16507
16510
16515
16517
16521
16528
16530
16532
16535
16538
16544
16550
16556
16563
16567
16571
16575
16578
16584
16587
16590
16592
16598
16600
16604
16607
16610
16614
16618
16622
16624
16626
16629
16633
16636
16641
16643
16646
16651
16654
16658
16662
16667
16671
16673
16678
16682
16684
16688
16692
16695
16701
16704
16707
16710
16716
16718
16721
16727
16731
16734
16738
16742
16744
16748
16750
16754
16757
16761
16763
16765
16768
16773
16775
16778
16781
16784
16789
16791
16794
16802
16804
16806
16813
16816
16820
16822
16826
16829
16833
16836
16838
16840
16844
16848
16850
16853
16856
16859
16863
16866
16869
16875
16878
16880
16883
16885
16887
16889
16893
16895
16899
16903
16905
16907
16909
16911
16913
16916
16919
16925
16928
16932
16935
16938
16940
16942
16945
16947
16949
16951
16957
16961
16968
16970
16973
16975
16978
16980
16984
16988
16994
16997
17000
17003
17006
17010
17013
17015
17018
17022
17028
17030
17035
17042
17050
17056
17058
17060
17063
17066
17068
17071
17073
17076
17079
17086
17090
17093
17096
17099
17106
17109
17111
17114
17117
17120
17127
17132
17134
17138
17141
17143
17145
17149
17153
17155
17158
17162
17164
17171
17175
17177
17187
17190
17192
17194
17197
17202
17205
17209
17214
17218
17221
17225
17231
17233
17240
17242
17245
17247
17249
17253
17258
17265
17272
17277
17282
17284
17286
17288
17292
17294
17296
17299
17303
17306
17309
17312
17315
17318
17320
17323
17327
17330
17333
17339
17342
17346
17349
17354
17356
17358
17363
17367
17372
17374
17378
17380
17382
17387
17392
17394
17396
17399
17402
17405
17408
17413
17420
17426
17430
17435
17438
17441
17445
17447
17450
17452
17457
17459
17463
17468
17471
17474
17476
17481
17486
17488
17491
17495
17498
17501
17506
17508
17512
17514
17519
17522
17528
17531
17534
17539
17543
17547
17551
17554
17557
17561
17564
17566
17569
17572
17577
17579
17583
17588
17591
17595
17600
17602
17606
17611
17613
17616
17618
17620
17623
17627
17630
17632
17637
17639
17642
17644
17648
17651
17653
17656
17660
17663
17665
17667
17669
17672
17674
17677
17680
17683
17690
17695
17697
17704
17708
17714
17723
17725
17728
17735
17740
17743
17746
17751
17754
17756
17758
17761
17765
17767
17776
17780
17783
17788
17793
17796
17800
17802
17806
17810
17812
17816
17819
17822
17824
17828
17830
17834
17836
17839
17842
17846
17849
17855
17860
17864
17866
17868
17877
17882
17884
17887
17890
17894
17896
17899
17902
17906
17909
17912
17920
17924
17927
17931
17936
17944
17951
17958
17966
17969
17972
17975
17978
17981
17984
17986
17990
17993
17999
18001
18005
18008
18013
18015
18017
18020
18022
18024
18027
18029
18032
18034
18037
18040
18044
18046
18048
18053
18059
18062
18065
18071
18074
18079
18081
18086
18088
18091
18095
18098
18100
18104
18106
18109
18113
18119
18121
18123
18131
18135
18139
18141
18144
18146
18150
18153
18158
18160
18162
18166
18171
18179
18182
18189
18193
18197
18201
18205
18207
18212
18218
18224
18226
18228
18230
18232
18235
18239
18243
18248
18253
18257
18259
18262
18269
18273
18275
18278
18281
18284
18286
18288
18293
18297
18300
18304
18308
18311
18316
18319
18325
18332
18337
18344
18346
18351
18354
18356
18358
18360
18367
18371
18376
18379
18385
18388
18394
18396
18398
18400
18404
18406
18409
18416
18422
18427
18430
18435
18442
18445
18448
18451
18455
18458
18461
18464
18469
18473
18475
18477
18480
18482
18485
18490
18493
18497
18500
18506
18509
18512
18515
18521
18523
18525
18533
18535
18537
18539
18542
18545
18548
18550
18554
18557
18560
18563
18566
18568
18570
18572
18574
18577
18581
18586
18590
18597
18601
18605
18607
18609
18612
18614
18620
18626
18628
18630
18633
18635
18641
18644
18647
18649
18652
18654
18656
18659
18662
18667
18674
18677
18682
18687
18695
18698
18700
18706
18710
18713
18716
18718
18722
18725
18728
18732
18734
18739
18741
18744
18746
18749
18751
18756
18758
18760
18765
18767
18770
18773
18775
18779
18782
18784
18788
18790
18794
18796
18802
18807
18816
18818
18820
18824
18827
18829
18833
18840
18842
18844
18846
18848
18853
18860
18863
18865
18869
18873
18875
18878
18880
18883
18887
18889
18891
18894
18898
18901
18904
18906
18913
18918
18925
18931
18934
18938
18941
18944
18947
18949
18952
18959
18962
18965
18969
18972
18974
18977
18979
18982
18985
18994
18996
19001
19004
19006
19008
19012
19014
19019
19024
19028
19031
19033
19035
19038
19040
19046
19050
19056
19058
19062
19070
19075
19077
19081
19084
19087
19091
19094
19096
19098
19100
19102
19105
19111
19114
19117
19122
19125
19128
19131
19136
19139
19142
19144
19148
19150
19153
19155
19157
19159
19162
19164
19167
19171
19175
19180
19185
19187
19190
19193
19195
19198
19202
19205
19207
19210
19220
19226
19229
19235
19239
19241
19244
19249
19255
19258
19266
19271
19274
19279
19281
19283
19287
19291
19293
19297
19300
19308
19312
19317
19320
19322
19325
19330
19334
19336
19339
19342
19345
19349
19352
19357
19360
19366
19368
19373
19378
19380
19382
19384
19388
19390
19393
19395
19397
19399
19402
19406
19412
19414
19417
19420
19424
19426
19428
19430
19432
19440
19445
19450
19453
19455
19460
19463
19465
19468
19472
19475
19477
19479
19483
19487
19490
19493
19497
19499
19508
19511
19514
19516
19519
19521
19525
19528
19531
19533
19535
19541
19543
19547
19550
19553
19556
19558
19561
19565
19568
19571
19575
19579
19584
19592
19597
19601
19603
19606
19611
19614
19616
19620
19624
19631
19637
19640
19642
19646
19649
19652
19654
19656
19661
19664
19670
19672
19674
19679
19688
19691
19693
19696
19703
19708
19711
19714
19718
19721
19724
19730
19733
19735
19741
19743
19745
19747
19751
19755
19758
19762
19768
19772
19775
19777
19781
19783
19787
19793
19796
19799
19802
19805
19807
19809
19813
19819
19823
19825
19831
19835
19837
19841
19844
19846
19850
19853
19856
19859
19862
19864
19868
19872
19874
19877
19879
19883
19885
19887
19891
19896
19900
19906
19909
19913
19915
19917
19919
19922
19925
19930
19932
19934
19937
19941
19943
19945
19947
19949
19952
19955
19958
19960
19968
19972
19975
19978
19980
19983
19985
19988
19992
19994
19996
19998
20001
20003
20007
20009
20015
20021
20024
20029
20032
20038
20040
20043
20051
20056
20060
20063
20065
20068
20071
20074
20081
20084
20088
20092
20095
20098
20100
20103
20108
20110
20112
20114
20116
20122
20126
20128
20130
20135
20138
20140
20144
20146
20148
20152
20154
20158
20160
20162
20164
20167
20170
20176
20193
20196
20201
20204
20208
20211
20215
20217
20219
20224
20228
20231
20236
20239
20241
20243
20245
20248
20250
20253
20258
20264
20272
20276
20278
20284
20288
20291
20294
20296
20300
20303
20307
20309
20312
20317
20324
20329
20332
20335
20338
20340
20342
20346
20348
20350
20356
20362
20366
20368
20372
20378
20380
20382
20384
20390
20393
20395
20399
20401
20406
20411
20416
20422
20426
20428
20430
20432
20434
20438
20440
20444
20450
20453
20459
20462
20466
20470
20473
20476
20479
20483
20485
20490
20492
20494
20503
20508
20512
20515
20519
20522
20525
20527
20530
20533
20535
20537
20540
20542
20546
20549
20551
20554
20557
20559
20561
20565
20567
20570
20572
20576
20580
20585
20592
20594
20597
20600
20602
20604
20609
20612
20614
20618
20621
20624
20626
20630
20632
20635
20640
20642
20644
20648
20650
20652
20655
20659
20662
20666
20670
20673
20675
20679
20681
20685
20691
20693
20696
20699
20707
20709
20711
20714
20716
20719
20724
20726
20728
20731
20733
20736
20740
20743
20745
20748
20750
20752
20756
20761
20763
20768
20772
20776
20779
20782
20785
20788
20791
20795
20798
20801
20806
20809
20813
20816
20821
20824
20827
20834
20837
20839
20841
20843
20846
20849
20855
20860
20867
20873
20876
20880
20883
20885
20887
20893
20896
20899
20903
20908
20914
20919
20924
20927
20931
20936
20939
20942
20948
20954
20958
20961
20963
20966
20969
20971
20973
20978
20981
20984
20988
20990
20992
20995
20998
21000
21003
21010
21016
21019
21021
21023
21026
21030
21032
21036
21038
21040
21042
21044
21046
21048
21052
21058
21061
21064
21068
21071
21076
21082
21085
21088
21093
21098
21103
21113
21116
21122
21124
21127
21130
21133
21136
21142
21147
21149
21152
21155
21157
21159
21167
21173
21176
21179
21182
21185
21188
21190
21196
21199
21203
21207
21210
21213
21215
21218
21220
21223
21225
21229
21232
21235
21241
21247
21253
21256
21258
21262
21266
21268
21270
21273
21277
21280
21283
21285
21289
21291
21293
21295
21301
21304
21308
21310
21314
21322
21326
21332
21336
21338
21341
21345
21349
21355
21357
21359
21361
21368
21370
21376
21378
21380
21382
21387
21394
21400
21407
21414
21418
21421
21424
21426
21430
21435
21440
21445
21448
21451
21456
21458
21460
21465
21470
21478
21481
21486
21491
21495
21497
21499
21502
21505
21508
21512
21515
21519
21522
21525
21527
21531
21534
21536
21549
21553
21555
21563
21567
21570
21573
21577
21579
21582
21588
21592
21596
21598
21602
21607
21613
21619
21621
21625
21627
21629
21631
21634
21636
21638
21640
21642
21646
21649
21651
21653
21661
21664
21666
21668
21673
21676
21680
21687
21691
21693
21700
21705
21708
21711
21716
21721
21726
21728
21732
21737
21744
21750
21753
21759
21762
21767
21771
21775
21778
21781
21784
21786
21789
21791
21793
21797
21799
21802
21804
21808
21811
21814
21816
21818
21823
21826
21831
21835
21838
21840
21844
21847
21850
21852
21854
21856
21860
21864
21866
21869
21871
21878
21881
21883
21885
21889
21895
21897
21899
21903
21908
21910
21913
21919
21923
21925
21928
21930
21933
21937
21943
21945
21950
21956
21963
21969
21971
21975
21977
21979
21981
21983
21991
21996
21998
22002
22004
22006
22010
22014
22016
22019
22021
22024
22027
22030
22035
22038
22041
22043
22046
22049
22051
22054
22057
22060
22064
22066
22069
22076
22078
22080
22085
22089
22093
22095
22099
22102
22104
22108
22113
22118
22120
22123
22126
22128
22131
22133
22136
22139
22141
22144
22148
22152
22156
22161
22164
22166
22168
22173
22175
22177
22179
22183
22185
22189
22192
22195
22198
22201
22204
22212
22215
22219
22222
22227
22231
22233
22237
22240
22244
22248
22255
22258
22261
22264
22266
22269
22271
22276
22284
22287
22289
22296
22303
22306
22310
22314
22320
22324
22329
22333
22336
22341
22344
22351
22353
22355
22358
22362
22365
22369
22374
22377
22383
22385
22389
22393
22397
22399
22401
22407
22409
22411
22414
22419
22423
22426
22428
22432
22435
22439
22443
22447
22450
22454
22461
22465
22468
22471
22474
22478
22481
22483
22486
22490
22492
22495
22498
22504
22514
22516
22521
22523
22526
22528
22532
22534
22537
22540
22543
22548
22554
22557
22561
22564
22570
22572
22575
22577
22584
22589
22598
22603
22608
22612
22617
22620
22624
22627
22630
22633
22636
22642
22647
22651
22655
22658
22664
22670
22675
22678
22680
22684
22686
22688
22696
22698
22701
22705
22708
22711
22713
22717
22719
22723
22729
22732
22734
22740
22748
22752
22756
22762
22767
22771
22773
22777
22779
22783
22788
22790
22792
22795
22798
22800
22803
22807
22810
22813
22815
22818
22821
22830
22833
22835
22838
22842
22844
22846
22850
22852
22857
22861
22864
22866
22869
22873
22876
22878
22882
22886
22891
22893
22896
22901
22909
22916
22920
22924
22929
22933
22936
22940
22943
22945
22948
22950
22954
22956
22959
22964
22969
22973
22975
22978
22981
22985
22987
22993
22996
22998
23000
23002
23008
23014
23017
23019
23022
23025
23029
23031
23035
23038
23040
23043
23045
23047
23050
23053
23055
23058
23062
23068
23073
23077
23079
23081
23083
23085
23091
23095
23097
23101
23103
23107
23111
23113
23116
23119
23121
23123
23125
23129
23133
23139
23143
23153
23156
23161
23164
23166
23172
23174
23179
23181
23186
23189
23191
23194
23199
23201
23208
23211
23213
23217
23221
23224
23227
23230
23233
23239
23242
23247
23250
23254
23257
23265
23267
23269
23271
23274
23276
23278
23280
23284
23287
23290
23292
23296
23299
23305
23307
23311
23314
23316
23319
23325
23332
23338
23342
23345
23347
23350
23353
23356
23360
23365
23369
23371
23374
23377
23379
23383
23386
23389
23393
23397
23401
23404
23407
23410
23415
23419
23422
23425
23428
23431
23434
23437
23440
23443
23446
23448
23451
23454
23457
23459
23462
23465
23468
23470
23473
23478
23482
23490
23492
23496
23502
23509
23511
23513
23516
23518
23521
23524
23526
23528
23532
23535
23539
23541
23544
23547
23550
23554
23558
23561
23563
23566
23568
23573
23577
23583
23585
23587
23590
23592
23595
23598
23601
23605
23609
23614
23617
23620
23624
23626
23628
23631
23635
23637
23646
23652
23659
23664
23666
23668
23671
23673
23677
23681
23683
23685
23689
23692
23694
23698
23701
23704
23707
23710
23713
23718
23722
23725
23728
23731
23734
23737
23740
23742
23744
23746
23749
23751
23755
23758
23763
23766
23769
23772
23776
23779
23782
23788
23791
23794
23796
23799
23802
23805
23808
23811
23814
23818
23821
23824
23827
23829
23832
23835
23841
23844
23847
23849
23851
23854
23859
23861
23864
23868
23872
23883
23886
23890
23892
23895
23899
23901
23905
23909
23917
23919
23921
23923
23927
23929
23932
23935
23937
23943
23950
23953
23960
23968
23970
23972
23974
23980
23984
23987
23991
23994
23998
24002
24007
24010
24013
24017
24022
24025
24029
24031
24033
24036
24039
24042
24044
24046
24049
24051
24054
24058
24061
24063
24066
24069
24073
24078
24082
24087
24091
24096
24105
24107
24114
24118
24121
24123
24125
24127
24130
24132
24135
24141
24148
24151
24155
24157
24162
24165
24168
24170
24172
24179
24181
24184
24192
24197
24199
24202
24205
24207
24211
24214
24216
24220
24223
24225
24227
24229
24234
24237
24244
24246
24250
24252
24254
24257
24261
24263
24266
24268
24271
24276
24280
24285
24288
24291
24296
24298
24301
24305
24316
24319
24324
24327
24330
24334
24336
24340
24344
24349
24352
24354
24357
24359
24361
24364
24367
24371
24373
24378
24383
24389
24393
24397
24405
24408
24412
24415
24417
24419
24421
24424
24429
24431
24433
24436
24438
24441
24443
24445
24447
24451
24454
24457
24459
24462
24466
24469
24472
24474
24477
24480
24482
24488
24490
24493
24498
24500
24502
24504
24508
24511
24513
24515
24519
24526
24531
24535
24539
24541
24544
24547
24549
24556
24559
24564
24568
24571
24573
24575
24578
24580
24582
24585
24588
24592
24594
24597
24601
24604
24608
24613
24617
24619
24622
24627
24634
24641
24647
24650
24652
24654
24656
24658
24663
24665
24669
24673
24676
24680
24683
24691
24695
24697
24701
24703
24706
24711
24713
24716
24720
24723
24726
24730
24735
24740
24742
24744
24751
24754
24756
24758
24760
24763
24767
24772
24777
24779
24781
24786
24789
24793
24799
24801
24803
24806
24809
24811
24814
24817
24819
24823
24825
24828
24832
24835
24837
24840
24842
24847
24850
24853
24858
24864
24869
24872
24879
24885
24887
24889
24895
24900
24905
24907
24911
24919
24928
24933
24937
24943
24950
24952
24955
24961
24966
24975
24979
24982
24987
24993
24996
24999
25004
25008
25012
25015
25018
25023
25027
25035
25038
25041
25044
25048
25051
25057
25061
25064
25067
25070
25074
25082
25088
25090
25092
25100
25105
25111
25119
25125
25130
25132
25137
25142
25144
25147
25150
25153
25155
25159
25164
25168
25171
25174
25176
25180
25183
25185
25190
25193
25197
25200
25206
25210
25212
25214
25216
25218
25226
25231
25236
25240
25242
25244
25249
25251
25256
25258
25262
25264
25267
25270
25276
25279
25281
25285
25288
25290
25292
25295
25298
25303
25306
25312
25314
25316
25318
25321
25324
25327
25332
25335
25340
25345
25347
25349
25352
25360
25365
25368
25370
25377
25382
25386
25390
25395
25397
25400
25405
25408
25412
25417
25419
25423
25425
25428
25430
25432
25434
25436
25438
25441
25443
25446
25448
25450
25454
25457
25460
25464
25467
25471
25473
25476
25480
25483
25487
25489
25494
25496
25498
25503
25505
25507
25510
25514
25518
25521
25523
25525
25527
25529
25532
25539
25542
25544
25549
25553
25557
25560
25562
25566
25569
25572
25575
25577
25579
25581
25585
25587
25590
25592
25594
25599
25601
25604
25606
25610
25612
25614
25616
25624
25630
25635
25642
25645
25648
25653
25656
25660
25663
25669
25673
25676
25678
25681
25683
25685
25687
25691
25693
25695
25698
25700
25702
25705
25707
25713
25716
25719
25722
25724
25727
25729
25732
25735
25740
25743
25746
25748
25750
25752
25756
25760
25762
25764
25767
25773
25783
25788
25790
25793
25796
25798
25801
25804
25807
25810
25813
25816
25819
25821
25825
25830
25833
25835
25839
25845
25847
25850
25858
25864
25867
25869
25872
25875
25880
25885
25887
25889
25891
25893
25897
25899
25901
25908
25911
25913
25915
25920
25923
25926
25929
25933
25936
25939
25941
25945
25949
25952
25955
25959
25962
25965
25971
25975
25980
25985
25987
25992
25995
26002
26004
26007
26010
26012
26014
26019
26021
26028
26031
26036
26039
26041
26044
26047
26055
26057
26060
26065
26068
26071
26074
26076
26082
26084
26086
26088
26090
26092
26094
26097
26103
26105
26109
26112
26115
26117
26121
26125
26131
26134
26138
26143
26146
26148
26151
26154
26157
26160
26162
26164
26167
26169
26171
26174
26176
26180
26183
26187
26189
26192
26194
26196
26199
26202
26205
26208
26214
26218
26222
26230
26234
26238
26241
26244
26246
26251
26253
26256
26259
26262
26265
26268
26270
26272
26280
26282
26287
26293
26296
26298
26301
26303
26305
26307
26309
26311
26314
26317
26319
26323
26326
26329
26332
26335
26337
26340
26343
26348
26354
26362
26368
26373
26379
26384
26386
26389
26391
26395
26398
26400
26403
26406
26412
26414
26416
26418
26421
26424
26427
26429
26433
26435
26439
26442
26445
26448
26452
26454
26456
26458
26460
26463
26467
26471
26474
26476
26480
26486
26488
26492
26494
26498
26503
26506
26509
26513
26515
26518
26526
26529
26532
26536
26540
26542
26546
26552
26556
26560
26563
26565
26567
26569
26571
26575
26578
26581
26584
26587
26589
26591
26598
26603
26611
26617
26622
26624
26628
26631
26634
26640
26644
26648
26652
26658
26662
26664
26667
26670
26675
26677
26681
26686
26688
26691
26694
26700
26702
26704
26708
26720
26722
26724
26727
26730
26734
26738
26742
26745
26747
26749
26756
26760
26762
26764
26770
26773
26775
26781
26783
26791
26796
26801
26804
26809
26812
26815
26818
26820
26824
26828
26831
26833
26838
26840
26843
26845
26848
26851
26857
26861
26868
26870
26875
26877
26881
26884
26886
26889
26894
26897
26900
26904
26906
26910
26913
26919
26922
26926
26929
26933
26937
26940
26943
26945
26949
26959
26961
26964
26968
26974
26977
26982
26985
26989
26993
26995
26997
27000
27004
27006
27012
27014
27017
27020
27022
27027
27029
27035
27042
27047
27050
27057
27060
27063
27067
27073
27076
27078
27085
27090
27093
27096
27098
27101
27104
27106
27108
27115
27120
27123
27126
27128
27132
27135
27139
27141
27146
27150
27152
27155
27159
27162
27165
27171
27173
27177
27179
27182
27186
27192
27195
27198
27204
27206
27210
27214
27217
27219
27222
27228
27230
27232
27236
27238
27243
27247
27249
27257
27263
27267
27271
27273
27277
27281
27283
27286
27291
27296
27303
27306
27309
27312
27315
27317
27319
27321
27325
27329
27332
27336
27339
27345
27347
27351
27358
27361
27363
27366
27369
27371
27375
27379
27384
27387
27390
27392
27395
27397
27400
27402
27405
27407
27409
27411
27413
27416
27418
27420
27423
27425
27429
27431
27437
27441
27445
27450
27453
27459
27462
27465
27468
27475
27477
27480
27482
27490
27495
27499
27501
27503
27506
27512
27516
27519
27523
27530
27532
27539
27543
27546
27550
27552
27556
27558
27560
27564
27566
27570
27576
27584
27593
27600
27606
27608
27610
27612
27616
27621
27624
27627
27630
27632
27635
27637
27641
27645
27648
27651
27653
27659
27663
27666
27668
27670
27675
27681
27686
27688
27692
27696
27699
27702
27705
27707
27709
27712
27714
27720
27722
27726
27728
27732
27734
27736
27739
27741
27745
27748
27753
27759
27762
27766
27768
27774
27778
27781
27783
27786
27797
27800
27807
27809
27813
27816
27819
27822
27828
27831
27833
27835
27840
27842
27844
27847
27851
27854
27856
27858
27862
27865
27872
27879
27884
27887
27890
27895
27897
27903
27905
27910
27912
27917
27919
27921
27923
27925
27928
27931
27933
27936
27941
27945
27947
27951
27954
27956
27959
27961
27965
27968
27970
27974
27978
27980
27983
27987
27990
27993
27996
28004
28007
28011
28014
28017
28020
28026
28029
28031
28033
28035
28038
28044
28048
28051
28054
28056
28058
28060
28063
28067
28070
28074
28076
28078
28080
28085
28088
28091
28094
28098
28101
28104
28110
28115
28121
28129
28134
28138
28141
28143
28145
28149
28153
28160
28164
28167
28170
28173
28176
28179
28182
28184
28188
28190
28193
28196
28198
28200
28202
28206
28208
28212
28216
28218
28221
28226
28230
28232
28236
28239
28242
28247
28251
28253
28255
28258
28263
28266
28269
28272
28275
28279
28285
28287
28292
28302
28305
28307
28310
28312
28315
28317
28320
28322
28328
28333
28337
28339
28342
28344
28353
28356
28358
28365
28370
28378
28384
28388
28390
28397
28400
28404
28407
28410
28417
28419
28423
28426
28428
28431
28434
28437
28440
28442
28446
28450
28453
28455
28457
28460
28462
28465
28468
28473
28476
28480
28483
28485
28490
28495
28498
28501
28503
28507
28510
28512
28515
28518
28521
28526
28533
28536
28538
28541
28544
28548
28551
28553
28556
28560
28562
28565
28568
28571
28577
28579
28582
28585
28587
28593
28596
28599
28605
28611
28618
28628
28631
28635
28638
28641
28643
28647
28652
28654
28656
28659
28663
28666
28669
28672
28675
28677
28680
28688
28692
28698
28704
28706
28709
28712
28715
28720
28723
28725
28728
28730
28732
28734
28736
28739
28741
28745
28749
28752
28754
28757
28759
28764
28767
28769
28771
28776
28779
28782
28784
28788
28793
28801
28806
28810
28812
28815
28817
28821
28823
28831
28833
28837
28840
28843
28849
28854
28857
28861
28866
28869
28872
28875
28877
28881
28884
28887
28892
28898
28903
28908
28913
28916
28922
28925
28928
28933
28935
28938
28940
28944
28950
28954
28958
28964
28968
28974
28977
28980
28983
28986
28988
28992
28994
28997
29002
29007
29009
29013
29016
29019
29025
29029
29031
29034
29036
29038
29046
29049
29052
29054
29058
29060
29070
29073
29077
29080
29085
29087
29090
29092
29094
29097
29100
29103
29108
29112
29114
29119
29122
29125
29127
29130
29132
29136
29141
29146
29150
29154
29156
29160
29165
29170
29173
29178
29181
29183
29185
29188
29190
29192
29194
29199
29202
29204
29208
29212
29214
29220
29225
29229
29232
29234
29238
29242
29244
29246
29249
29253
29256
29258
29262
29264
29266
29269
29271
29273
29276
29279
29283
29286
29290
29296
29300
29303
29306
29312
29314
29317
29322
29325
29331
29334
29336
29338
29340
29342
29344
29346
29352
29358
29361
29366
29369
29373
29378
29380
29385
29388
29391
29393
29396
29400
29403
29406
29409
29412
29417
29419
29423
29430
29435
29440
29444
29449
29451
29453
29455
29457
29461
29466
29468
29473
29475
29477
29479
29482
29484
29488
29490
29492
29499
29504
29508
29510
29512
29514
29517
29520
29526
29528
29530
29532
29535
29537
29541
29543
29545
29547
29550
29554
29557
29559
29564
29566
29572
29574
29577
29580
29582
29585
29588
29591
29594
29597
29599
29601
29603
29606
29612
29618
29620
29622
29628
29632
29634
29636
29643
29646
29649
29652
29654
29657
29661
29664
29667
29670
29673
29677
29679
29683
29685
29689
29693
29695
29701
29705
29714
29718
29721
29724
29728
29730
29732
29735
29740
29744
29747
29751
29757
29760
29762
29766
29768
29770
29772
29774
29778
29783
29787
29790
29796
29799
29802
29805
29810
29814
29817
29820
29822
29826
29828
29832
29834
29836
29838
29841
29843
29846
29853
29856
29860
29862
29865
29871
29876
29884
29887
29889
29891
29896
29898
29900
29904
29906
29908
29913
29918
29922
29924
29927
29933
29937
29940
29946
29949
29952
29955
29957
29960
29963
29966
29970
29972
29975
29980
29983
29987
29989
29992
29994
29996
29998
30000
30005
30008
30010
30015
30020
30027
30032
30037
30040
30044
30049
30054
30060
30062
30064
30067
30069
30071
30074
30076
30079
30087
30090
30093
30096
30099
30102
30106
30108
30111
30114
30117
30120
30122
30125
30128
30132
30135
30138
30141
30144
30146
30150
30152
30159
30164
30171
30177
30182
30185
30189
30193
30195
30201
30203
30206
30208
30213
30216
30218
30222
30228
30231
30234
30236
30240
30246
30248
30254
30256
30260
30263
30266
30268
30272
30274
30279
30282
30285
30288
30290
30294
30298
30302
30305
30310
30317
30322
30326
30334
30338
30342
30345
30348
30351
30354
30357
30360
30363
30366
30369
30373
30377
30380
30384
30389
30392
30396
30398
30400
30405
30408
30410
30414
30417
30419
30422
30429
30432
30436
30438
30443
30446
30451
30455
30457
30463
30467
30470
30474
30478
30480
30482
30492
30495
30498
30500
30504
30507
30513
30518
30520
30524
30528
30530
30534
30536
30540
30542
30545
30550
30552
30554
30560
30565
30570
30575
30578
30583
30586
30589
30594
30597
30603
30608
30610
30612
30616
30619
30621
30624
30626
30631
30633
30637
30640
30642
30644
30648
30650
30654
30657
30662
30664
30666
30669
30672
30675
30680
30682
30686
30689
30696
30700
30703
30706
30710
30714
30716
30718
30722
30727
30729
30733
30736
30738
30741
30744
30746
30752
30754
30759
30761
30763
30768
30774
30783
30787
30791
30795
30798
30800
30804
30807
30810
30813
30816
30818
30820
30823
30825
30828
30830
30833
30835
30838
30840
30843
30845
30849
30852
30855
30859
30861
30866
30870
30872
30875
30878
30883
30885
30888
30893
30896
30898
30900
30905
30908
30911
30913
30915
30917
30920
30923
30926
30929
30932
30938
30941
30944
30948
30950
30955
30958
30960
30964
30970
30974
30978
30981
30984
30987
30989
30996
30998
31001
31004
31008
31014
31016
31019
31023
31028
31030
31033
31037
31041
31044
31047
31049
31052
31054
31057
31059
31063
31065
31070
31073
31075
31077
31080
31084
31086
31092
31095
31099
31103
31105
31108
31113
31119
31125
31127
31129
31131
31134
31138
31144
31147
31150
31152
31154
31157
31160
31163
31166
31169
31172
31178
31180
31185
31188
31191
31194
31196
31199
31201
31204
31209
31213
31215
31220
31222
31227
31231
31238
31240
31243
31245
31248
31252
31254
31257
31262
31264
31268
31275
31278
31281
31284
31287
31291
31298
31305
31311
31313
31316
31320
31324
31326
31328
31331
31333
31336
31339
31344
31346
31350
31352
31356
31358
31363
31367
31372
31376
31379
31381
31383
31388
31390
31392
31395
31398
31401
31404
31407
31410
31414
31416
31420
31422
31425
31427
31431
31434
31437
31440
31443
31447
31452
31454
31456
31458
31462
31466
31468
31470
31473
31476
31479
31481
31486
31488
31491
31494
31496
31499
31503
31506
31508
31511
31514
31518
31520
31525
31529
31534
31536
31541
31545
31547
31549
31554
31559
31562
31566
31568
31571
31574
31578
31581
31583
31587
31591
31596
31601
31604
31607
31611
31614
31617
31620
31623
31629
31635
31640
31645
31650
31652
31656
31662
31665
31668
31673
31676
31679
31682
31685
31688
31690
31692
31694
31696
31701
31708
31713
31717
31722
31724
31728
31731
31738
31741
31743
31747
31750
31754
31760
31762
31765
31769
31772
31776
31779
31782
31785
31790
31794
31796
31800
31805
31809
31815
31820
31824
31827
31829
31832
31836
31838
31840
31845
31847
31851
31854
31858
31860
31862
31865
31868
31873
31875
31880
31884
31888
31891
31894
31899
31903
31908
31911
31913
31915
31918
31921
31924
31927
31929
31932
31935
31938
31940
31946
31949
31952
31957
31962
31964
31970
31974
31978
31980
31984
31986
31988
31990
31992
31996
31998
32001
32004
32006
32009
32011
32016
32021
32023
32031
32036
32038
32042
32047
32049
32053
32055
32058
32062
32066
32068
32074
32076
32080
32087
32091
32094
32100
32102
32105
32108
32114
32116
32119
32121
32123
32126
32129
32131
32133
32136
32140
32142
32144
32146
32149
32151
32154
32157
32161
32165
32172
32174
32176
32179
32186
32188
32190
32193
32195
32198
32200
32202
32206
32208
32211
32213
32216
32221
32225
32229
32231
32234
32236
32240
32244
32246
32251
32258
32263
32267
32271
32273
32276
32279
32282
32286
32288
32292
32295
32297
32299
32302
32304
32310
32313
32316
32320
32325
32328
32331
32333
32337
32345
32348
32351
32353
32358
32361
32364
32366
32369
32374
32378
32384
32391
32395
32403
32409
32412
32417
32423
32430
32436
32445
32450
32453
32457
32459
32463
32465
32469
32473
32476
32478
32482
32485
32487
32490
32495
32499
32502
32505
32508
32511
32514
32517
32522
32527
32530
32537
32541
32544
32547
32550
32552
32554
32557
32560
32565
32570
32577
32579
32581
32584
32590
32593
32597
32601
32606
32609
32612
32616
32622
32625
32629
32633
32636
32638
32642
32644
32646
32651
32655
32659
32661
32667
32670
32673
32676
32679
32681
32684
32687
32689
32694
32696
32700
32702
32706
32709
32714
32717
32721
32727
32732
32737
32745
32748
32750
32753
32756
32759
32762
32767
32775
32777
32779
32781
32786
32790
32792
32796
32798
32801
32804
32807
32810
32812
32814
32816
32819
32821
32823
32825
32829
32832
32837
32841
32843
32845
32848
32855
32863
32869
32871
32874
32876
32880
32883
32887
32889
32891
32896
32898
32900
32903
32908
32910
32912
32915
32918
32920
32922
32927
32929
32933
32936
32940
32944
32946
32949
32954
32956
32961
32963
32965
32967
32970
32975
32980
32983
32985
32990
32992
32994
32997
33000
33002
33004
33009
33011
33015
33020
33026
33029
33033
33039
33042
33049
33053
33055
33058
33062
33064
33069
33072
33075
33081
33084
33087
33092
33096
33098
33101
33103
33105
33109
33112
33114
33118
33120
33125
33127
33131
33135
33137
33143
33145
33147
33153
33157
33159
33164
33166
33168
33170
33178
33184
33188
33192
33194
33196
33199
33202
33207
33209
33212
33216
33219
33222
33225
33227
33230
33233
33238
33244
33246
33249
33252
33255
33257
33261
33263
33267
33269
33278
33282
33284
33287
33291
33293
33296
33300
33303
33306
33309
33312
33314
33321
33323
33326
33330
33332
33336
33339
33342
33345
33349
33356
33363
33370
33374
33380
33385
33387
33390
33392
33396
33400
33402
33407
33412
33414
33417
33422
33428
33432
33434
33438
33440
33444
33447
33453
33459
33464
33468
33470
33474
33477
33479
33483
33486
33488
33494
33499
33503
33508
33511
33513
33518
33520
33522
33527
33530
33534
33537
33539
33543
33545
33548
33551
33555
33558
33566
33570
33573
33575
33577
33582
33586
33588
33592
33594
33596
33598
33600
33603
33607
33610
33612
33615
33620
33623
33627
33629
33635
33637
33641
33650
33657
33660
33662
33666
33668
33670
33675
33679
33681
33684
33687
33693
33696
33701
33705
33707
33710
33712
33715
33718
33720
33724
33726
33728
33732
33735
33737
33740
33743
33745
33747
33749
33752
33755
33758
33761
33765
33768
33774
33776
33779
33782
33786
33789
33792
33795
33799
33804
33812
33816
33818
33824
33826
33828
33831
33834
33839
33843
33845
33848
33850
33857
33861
33863
33867
33872
33874
33880
33886
33896
33900
33903
33906
33908
33911
33916
33921
33927
33932
33936
33938
33940
33942
33945
33947
33949
33953
33956
33959
33961
33964
33966
33968
33971
33981
33983
33986
33992
33999
34002
34005
34010
34014
34017
34020
34023
34025
34028
34030
34032
34034
34038
34043
34048
34052
34056
34059
34062
34065
34067
34069
34071
34077
34080
34083
34085
34088
34092
34095
34098
34101
34103
34105
34107
34110
34115
34119
34121
34124
34127
34129
34132
34137
34140
34148
34154
34158
34161
34165
34167
34170
34173
34176
34179
34184
34190
34194
34196
34203
34210
34213
34215
34217
34220
34222
34227
34230
34234
34236
34239
34241
34244
34246
34248
34253
34256
34260
34266
34269
34272
34277
34281
34283
34285
34287
34290
34293
34297
34300
34305
34310
34313
34316
34318
34320
34324
34326
34330
34333
34336
34342
34346
34353
34357
34359
34365
34371
34374
34376
34378
34380
34382
34386
34392
34395
34400
34403
34407
34409
34413
34416
34420
34422
34425
34432
34437
34439
34441
34443
34445
34452
34455
34458
34460
34464
34466
34469
34472
34475
34477
34479
34485
34488
34491
34495
34497
34500
34503
34506
34508
34511
34514
34518
34524
34527
34530
34532
34539
34541
34547
34551
34554
34556
34559
34563
34566
34568
34571
34575
34578
34585
34595
34598
34601
34606
34612
34614
34618
34625
34631
34634
34638
34640
34643
34645
34647
34650
34652
34655
34657
34659
34664
34666
34670
34673
34676
34679
34683
34685
34689
34692
34696
34698
34701
34703
34707
34709
34713
34719
34724
34728
34731
34733
34737
34739
34742
34745
34748
34751
34754
34758
34760
34764
34766
34772
34775
34778
34780
34787
34789
34791
34794
34796
34800
34805
34808
34811
34813
34815
34817
34820
34824
34826
34829
34832
34835
34837
34841
34844
34847
34851
34855
34859
34864
34872
34878
34881
34885
34887
34891
34893
34895
34900
34902
34904
34907
34912
34914
34918
34920
34924
34929
34933
34937
34940
34946
34950
34954
34958
34963
34967
34970
34976
34982
34986
34989
34992
34994
34998
35000
35003
35007
35014
35018
35021
35025
35029
35031
35034
35036
35038
35042
35048
35052
35055
35058
35063
35066
35070
35074
35077
35080
35084
35088
35091
35093
35096
35101
35103
35105
35108
35115
35118
35124
35127
35129
35137
35142
35145
35148
35151
35153
35156
35160
35163
35165
35170
35172
35174
35176
35178
35180
35184
35187
35190
35192
35195
35198
35200
35203
35208
35214
35219
35222
35228
35230
35233
35235
35238
35241
35246
35249
35251
35253
35257
35262
35267
35270
35273
35275
35278
35280
35282
35284
35290
35292
35294
35296
35298
35300
35303
35306
35308
35310
35313
35315
35317
35320
35322
35326
35328
35330
35332
35335
35337
35340
35342
35345
35352
35354
35358
35364
35370
35374
35378
35383
35387
35389
35395
35399
35402
35405
35409
35411
35414
35419
35421
35423
35426
35429
35431
35433
35436
35441
35444
35447
35451
35456
35460
35462
35464
35467
35469
35471
35475
35479
35484
35486
35490
35495
35499
35501
35503
35509
35513
35516
35519
35522
35525
35528
35532
35538
35541
35544
35550
35553
35556
35561
35564
35567
35570
35576
35579
35583
35586
35588
35591
35594
35598
35605
35610
35616
35620
35623
35628
35631
35635
35638
35642
35645
35648
35651
35656
35658
35663
35665
35667
35669
35672
35677
35681
35684
35688
35690
35694
35697
35701
35703
35706
35709
35711
35713
35718
35721
35723
35726
35731
35733
35736
35741
35743
35745
35747
35751
35754
35756
35758
35761
35765
35772
35774
35777
35779
35783
35785
35787
35789
35791
35797
35800
35803
35805
35808
35811
35816
35819
35825
35831
35838
35840
35842
35844
35846
35849
35852
35854
35856
35862
35864
35868
35871
35876
35878
35880
35886
35891
35894
35896
35899
35903
35905
35909
35915
35919
35923
35928
35932
35935
35937
35941
35945
35947
35952
35956
35960
35964
35966
35970
35975
35978
35980
35983
35987
35989
35992
35994
35996
36000
36002
36005
36010
36013
36015
36020
36023
36029
36032
36034
36037
36039
36042
36044
36048
36053
36056
36058
36062
36068
36071
36078
36080
36083
36086
36091
36093
36096
36098
36101
36104
36108
36113
36116
36118
36120
36123
36126
36129
36131
36137
36139
36141
36144
36146
36149
36153
36157
36159
36162
36164
36170
36177
36179
36181
36184
36187
36190
36192
36196
36200
36203
36207
36212
36218
36222
36227
36230
36232
36236
36242
36244
36248
36256
36263
36266
36268
36271
36274
36277
36280
36282
36287
36294
36298
36300
36306
36308
36313
36319
36321
36326
36329
36332
36334
36337
36340
36342
36346
36351
36353
36357
36359
36362
36366
36369
36374
36377
36380
36385
36388
36390
36395
36405
36408
36410
36414
36419
36422
36427
36431
36433
36436
36440
36443
36446
36448
36455
36460
36463
36467
36469
36471
36477
36483
36490
36493
36497
36500
36503
36508
36510
36514
36517
36521
36523
36527
36530
36533
36536
36541
36545
36547
36551
36557
36559
36563
36565
36569
36571
36575
36580
36584
36588
36590
36592
36600
36606
36608
36610
36613
36615
36619
36623
36628
36631
36634
36637
36640
36646
36649
36651
36653
36655
36658
36662
36665
36668
36672
36678
36686
36691
36693
36698
36700
36702
36705
36708
36710
36714
36716
36719
36722
36725
36727
36731
36733
36736
36738
36742
36744
36746
36749
36752
36758
36761
36765
36768
36770
36772
36776
36781
36783
36785
36788
36791
36793
36797
36799
36803
36806
36809
36811
36815
36818
36821
36823
36826
36828
36831
36835
36839
36842
36845
36847
36850
36854
36857
36859
36863
36866
36869
36872
36875
36877
36880
36883
36887
36890
36893
36896
36900
36902
36905
36908
36913
36917
36920
36923
36927
36929
36931
36935
36941
36950
36952
36957
36960
36964
36968
36972
36976
36978
36980
36983
36988
36990
36995
36998
37000
37002
37004
37006
37009
37016
37023
37027
37034
37045
37049
37052
37054
37058
37061
37064
37067
37069
37073
37076
37079
37081
37085
37091
37097
37101
37103
37106
37114
37119
37123
37127
37131
37134
37138
37140
37147
37149
37154
37159
37164
37168
37172
37175
37177
37179
37181
37187
37193
37201
37205
37208
37210
37214
37216
37220
37222
37224
37226
37231
37233
37239
37241
37245
37248
37260
37262
37265
37267
37272
37279
37281
37285
37291
37294
37298
37302
37306
37313
37315
37319
37323
37328
37331
37335
37342
37347
37349
37351
37353
37355
37358
37361
37364
37367
37373
37375
37377
37379
37381
37383
37386
37391
37394
37396
37400
37403
37406
37410
37413
37415
37417
37419
37421
37425
37428
37430
37435
37439
37444
37446
37448
37451
37453
37460
37462
37465
37469
37472
37475
37477
37480
37484
37486
37488
37492
37498
37500
37502
37505
37511
37513
37515
37519
37523
37527
37529
37535
37538
37541
37544
37547
37549
37554
37559
37562
37564
37566
37571
37576
37582
37585
37588
37593
37597
37600
37604
37607
37610
37613
37616
37620
37622
37624
37626
37628
37634
37637
37640
37642
37646
37652
37655
37660
37663
37667
37670
37673
37675
37678
37681
37685
37688
37693
37696
37700
37702
37705
37712
37716
37718
37721
37726
37730
37733
37739
37741
37744
37747
37750
37753
37756
37759
37762
37766
37772
37775
37779
37781
37783
37788
37793
37796
37799
37802
37806
37811
37818
37825
37833
37837
37840
37843
37850
37855
37860
37862
37864
37868
37874
37876
37879
37883
37886
37888
37890
37895
37900
37906
37908
37912
37916
37918
37922
37928
37934
37937
37942
37946
37949
37951
37953
37956
37961
37966
37970
37974
37976
37980
37982
37984
37990
37993
37997
38000
38003
38007
38009
38012
38017
38024
38029
38033
38036
38038
38044
38048
38050
38056
38062
38067
38075
38081
38084
38087
38089
38092
38095
38099
38105
38107
38110
38112
38114
38118
38120
38124
38128
38132
38135
38138
38141
38145
38149
38153
38156
38160
38162
38166
38169
38174
38180
38183
38186
38189
38193
38196
38198
38202
38204
38207
38209
38213
38215
38219
38221
38225
38227
38233
38235
38237
38242
38248
38250
38253
38257
38263
38266
38270
38273
38275
38278
38281
38284
38288
38291
38293
38297
38299
38307
38309
38316
38320
38326
38330
38333
38336
38338
38341
38345
38347
38353
38355
38357
38360
38363
38365
38369
38373
38377
38379
38381
38383
38387
38390
38396
38399
38401
38403
38407
38412
38414
38419
38421
38423
38425
38428
38434
38437
38440
38444
38449
38454
38458
38461
38464
38466
38468
38470
38475
38481
38487
38491
38493
38500
38503
38505
38508
38511
38514
38516
38518
38521
38524
38527
38529
38532
38536
38538
38540
38543
38545
38548
38553
38557
38560
38564
38570
38573
38575
38577
38585
38590
38593
38600
38603
38605
38608
38611
38614
38617
38621
38623
38626
38629
38632
38636
38639
38642
38647
38650
38657
38660
38663
38666
38668
38672
38675
38677
38680
38683
38689
38693
38695
38699
38702
38704
38706
38708
38712
38717
38720
38722
38727
38733
38735
38738
38743
38747
38750
38754
38756
38758
38761
38764
38767
38770
38774
38779
38781
38785
38787
38789
38793
38798
38800
38802
38804
38807
38809
38816
38819
38822
38826
38832
38834
38836
38838
38841
38846
38853
38856
38858
38866
38872
38874
38876
38882
38885
38888
38891
38897
38899
38902
38909
38911
38917
38919
38924
38927
38933
38935
38938
38941
38946
38948
38951
38956
38959
38962
38968
38970
38972
38977
38982
38984
38987
38990
38993
38996
38998
39001
39003
39006
39009
39013
39016
39021
39024
39026
39029
39032
39037
39041
39045
39047
39049
39051
39055
39060
39062
39064
39071
39078
39082
39087
39089
39091
39097
39101
39105
39112
39115
39118
39120
39123
39130
39134
39137
39139
39143
39145
39150
39155
39160
39163
39166
39170
39175
39179
39182
39188
39191
39194
39199
39204
39208
39211
39213
39215
39219
39223
39225
39227
39230
39233
39236
39242
39248
39253
39257
39259
39262
39265
39268
39272
39274
39277
39280
39284
39286
39290
39293
39297
39299
39308
39311
39313
39316
39319
39323
39326
39330
39334
39337
39339
39341
39343
39345
39350
39352
39355
39359
39367
39371
39373
39375
39378
39380
39383
39387
39389
39392
39394
39398
39401
39404
39407
39410
39415
39417
39421
39424
39428
39432
39437
39443
39451
39456
39459
39463
39467
39469
39471
39475
39481
39484
39486
39489
39493
39495
39499
39503
39506
39509
39515
39518
39521
39524
39527
39533
39536
39538
39540
39542
39546
39548
39551
39558
39560
39563
39568
39571
39574
39577
39582
39584
39586
39590
39594
39598
39604
39608
39612
39614
39616
39619
39622
39628
39631
39634
39637
39641
39644
39647
39650
39653
39656
39658
39662
39666
39670
39673
39676
39680
39684
39688
39691
39697
39700
39704
39707
39710
39712
39716
39718
39720
39725
39730
39734
39739
39742
39746
39749
39752
39755
39757
39764
39771
39776
39784
39790
39794
39798
39800
39802
39809
39811
39815
39821
39824
39828
39830
39832
39836
39839
39841
39844
39849
39851
39853
39855
39857
39860
39865
39868
39870
39872
39874
39876
39878
39883
39886
39890
39893
39895
39897
39901
39903
39905
39908
39911
39914
39916
39920
39926
39929
39933
39936
39941
39943
39947
39949
39952
39955
39958
39962
39964
39968
39970
39972
39976
39978
39984
39987
39995
39998
40001
40007
40010
40013
40016
40019
40022
40027
40031
40034
40036
40038
40040
40045
40049
40056
40059
40062
40067
40073
40077
40081
40088
40093
40095
40097
40100
40103
40106
40108
40113
40115
40117
40119
40121
40126
40129
40134
40136
40141
40143
40145
40147
40150
40154
40158
40161
40163
40168
40171
40174
40177
40183
40185
40187
40190
40192
40195
40198
40201
40204
40206
40208
40212
40215
40221
40223
40227
40230
40233
40241
40245
40248
40250
40253
40255
40258
40264
40266
40268
40272
40274
40278
40280
40285
40290
40294
40298
40306
40312
40315
40317
40321
40327
40333
40335
40340
40344
40346
40349
40352
40355
40357
40360
40362
40366
40370
40373
40376
40379
40382
40387
40390
40393
40400
40406
40409
40413
40418
40420
40423
40428
40433
40435
40437
40439
40442
40447
40451
40454
40457
40459
40462
40465
40472
40475
40481
40483
40490
40495
40497
40499
40505
40509
40511
40514
40517
40526
40529
40532
40538
40540
40543
40550
40555
40558
40561
40565
40570
40574
40578
40581
40583
40587
40590
40594
40600
40604
40608
40613
40618
40620
40624
40631
40633
40635
40639
40643
40646
40649
40652
40655
40659
40662
40665
40667
40672
40675
40681
40683
40686
40690
40692
40694
40696
40702
40707
40711
40718
40724
40728
40731
40735
40737
40742
40750
40753
40756
40759
40762
40768
40771
40774
40777
40780
40783
40786
40789
40792
40794
40799
40805
40809
40812
40818
40823
40829
40834
40836
40839
40841
40845
40848
40853
40858
40861
40867
40871
40877
40879
40882
40884
40886
40891
40894
40896
40899
40902
40904
40907
40909
40914
40921
40925
40927
40929
40932
40937
40941
40945
40950
40960
40963
40968
40970
40973
40975
40978
40982
40988
40997
40999
41005
41008
41011
41014
41020
41023
41027
41033
41041
41048
41052
41054
41058
41060
41062
41065
41068
41072
41076
41081
41085
41092
41096
41098
41102
41104
41106
41112
41114
41117
41120
41124
41126
41128
41131
41136
41140
41142
41145
41147
41149
41152
41155
41158
41162
41165
41167
41169
41174
41176
41178
41184
41186
41189
41191
41194
41197
41200
41206
41211
41213
41215
41219
41221
41224
41227
41229
41232
41235
41240
41242
41247
41250
41253
41260
41266
41268
41275
41279
41282
41284
41287
41290
41293
41297
41302
41305
41309
41311
41314
41316
41318
41322
41325
41327
41332
41338
41341
41345
41347
41349
41351
41353
41355
41358
41362
41365
41369
41371
41373
41377
41380
41386
41390
41393
41396
41398
41400
41403
41407
41409
41412
41414
41418
41420
41422
41425
41428
41432
41437
41443
41445
41448
41452
41455
41459
41461
41467
41470
41473
41475
41478
41482
41487
41489
41493
41497
41500
41504
41509
41511
41514
41523
41529
41532
41536
41540
41543
41545
41547
41549
41551
41555
41559
41563
41566
41571
41575
41578
41581
41583
41587
41590
41594
41596
41599
41601
41604
41609
41611
41617
41620
41622
41624
41626
41630
41635
41640
41644
41646
41648
41653
41657
41659
41663
41666
41668
41672
41676
41679
41683
41689
41694
41696
41700
41702
41706
41710
41713
41716
41720
41722
41726
41728
41733
41737
41740
41746
41749
41752
41758
41761
41764
41767
41770
41772
41776
41779
41782
41784
41786
41789
41791
41793
41795
41799
41801
41803
41807
41809
41811
41814
41816
41818
41821
41824
41826
41830
41833
41839
41842
41844
41848
41850
41853
41855
41859
41861
41864
41868
41872
41875
41878
41881
41885
41887
41890
41893
41896
41898
41900
41902
41906
41912
41914
41918
41926
41932
41935
41939
41941
41945
41949
41952
41954
41960
41965
41968
41974
41976
41981
41984
41988
41992
41995
41998
42001
42007
42010
42012
42014
42018
42024
42028
42030
42034
42041
42045
42048
42051
42055
42058
42061
42064
42067
42070
42073
42078
42086
42088
42091
42093
42097
42100
42102
42107
42109
42112
42115
42117
42120
42124
42126
42129
42133
42136
42142
42144
42146
42150
42154
42160
42165
42169
42175
42178
42181
42184
42186
42190
42193
42196
42198
42202
42205
42207
42209
42211
42214
42217
42220
42222
42225
42230
42235
42238
42243
42246
42251
42253
42258
42260
42264
42269
42272
42276
42279
42281
42288
42292
42295
42298
42300
42304
42306
42312
42315
42318
42321
42323
42330
42334
42338
42341
42343
42345
42349
42352
42355
42360
42362
42365
42367
42369
42374
42379
42382
42384
42388
42391
42394
42397
42403
42407
42409
42413
42417
42423
42427
42430
42432
42436
42438
42443
42446
42452
42454
42457
42459
42463
42466
42469
42473
42479
42484
42490
42495
42498
42502
42504
42507
42510
42514
42517
42520
42523
42526
42528
42532
42535
42537
42541
42543
42546
42552
42560
42566
42571
42577
42580
42583
42585
42587
42589
42592
42594
42596
42598
42600
42603
42605
42607
42610
42619
42621
42624
42628
42631
42637
42639
42642
42646
42648
42652
42655
42659
42661
42664
42667
42669
42673
42676
42680
42682
42686
42688
42694
42702
42706
42708
42714
42718
42720
42723
42726
42730
42733
42736
42738
42742
42745
42750
42752
42755
42757
42759
42761
42763
42766
42770
42772
42774
42776
42778
42783
42786
42790
42792
42795
42797
42799
42801
42804
42810
42812
42814
42817
42820
42822
42826
42829
42832
42838
42842
42846
42852
42855
42858
42861
42863
42866
42870
42874
42876
42880
42884
42887
42889
42892
42894
42900
42902
42905
42907
42909
42912
42915
42918
42921
42923
42925
42928
42931
42936
42940
42949
42951
42955
42958
42961
42963
42966
42971
42973
42979
42981
42984
42988
42990
42993
42995
42998
43002
43010
43015
43023
43025
43029
43033
43035
43038
43044
43046
43050
43054
43056
43059
43061
43063
43066
43068
43070
43072
43076
43078
43081
43085
43089
43092
43096
43101
43106
43108
43111
43114
43117
43119
43122
43129
43132
43135
43140
43145
43150
43155
43158
43160
43165
43167
43169
43174
43176
43179
43182
43186
43189
43192
43194
43196
43198
43200
43204
43207
43210
43212
43216
43220
43222
43224
43230
43235
43239
43243
43248
43252
43256
43259
43264
43266
43270
43275
43279
43282
43284
43288
43291
43294
43296
43299
43302
43305
43312
43316
43318
43325
43327
43329
43332
43336
43339
43341
43345
43348
43350
43354
43357
43359
43361
43363
43366
43369
43372
43374
43377
43380
43387
43390
43392
43395
43397
43399
43402
43404
43407
43410
43413
43416
43418
43420
43422
43424
43427
43434
43437
43440
43443
43446
43449
43453
43456
43461
43466
43473
43479
43483
43486
43489
43492
43495
43497
43500
43504
43507
43510
43512
43514
43516
43519
43521
43526
43535
43539
43544
43546
43549
43552
43554
43558
43565
43570
43572
43574
43579
43586
43589
43594
43599
43605
43611
43615
43619
43623
43627
43630
43632
43636
43640
43643
43645
43647
43650
43654
43656
43659
43661
43663
43669
43671
43675
43680
43684
43686
43688
43694
43698
43705
43707
43710
43714
43716
43719
43722
43726
43729
43732
43734
43737
43741
43745
43747
43754
43760
43762
43765
43770
43773
43779
43781
43785
43790
43793
43797
43801
43804
43807
43809
43814
43817
43823
43826
43828
43832
43834
43837
43844
43848
43851
43857
43859
43863
43865
43869
43873
43878
43881
43886
43888
43891
43894
43900
43905
43908
43910
43915
43917
43923
43927
43932
43935
43941
43946
43950
43954
43956
43958
43961
43966
43969
43971
43976
43978
43980
43982
43986
43991
43996
44000
44002
44004
44006
44009
44016
44019
44022
44024
44028
44030
44033
44038
44040
44047
44052
44055
44058
44060
44063
44067
44071
44076
44081
44085
44089
44092
44094
44096
44100
44103
44107
44111
44115
44117
44119
44124
44129
44131
44134
44136
44141
44143
44148
44152
44155
44157
44163
44166
44169
44172
44174
44176
44179
44182
44185
44187
44191
44193
44195
44198
44200
44203
44208
44210
44212
44218
44222
44224
44230
44236
44239
44242
44251
44256
44260
44264
44269
44274
44276
44278
44282
44284
44287
44290
44292
44295
44297
44299
44301
44305
44312
44319
44322
44325
44329
44333
44339
44344
44346
44350
44353
44356
44358
44360
44362
44364
44367
44370
44374
44376
44380
44382
44390
44392
44396
44399
44401
44405
44409
44412
44415
44419
44422
44424
44431
44435
44437
44439
44442
44446
44449
44453
44457
44463
44466
44469
44472
44474
44477
44479
44483
44485
44490
44493
44495
44497
44500
44502
44506
44508
44512
44515
44518
44523
44525
44528
44531
44533
44535
44538
44542
44544
44549
44551
44556
44559
44565
44568
44570
44574
44577
44580
44584
44587
44589
44592
44598
44602
44605
44607
44612
44614
44616
44619
44623
44628
44635
44637
44642
44647
44650
44656
44658
44661
44665
44670
44675
44677
44680
44684
44686
44690
44692
44696
44700
44702
44704
44706
44710
44714
44718
44722
44730
44736
44739
44742
44744
44748
44751
44754
44757
44760
44766
44769
44772
44776
44779
44784
44789
44791
44794
44797
44799
44801
44803
44806
44809
44812
44815
44817
44822
44827
44830
44836
44839
44841
44845
44848
44850
44854
44856
44862
44866
44868
44871
44875
44880
44883
44888
44894
44896
44898
44901
44903
44908
44913
44917
44921
44927
44931
44934
44938
44942
44944
44947
44950
44952
44956
44961
44964
44967
44972
44977
44982
44986
44989
44995
44997
45000
45002
45004
45007
45010
45013
45015
45018
45025
45031
45033
45035
45039
45042
45044
45049
45054
45060
45062
45064
45068
45070
45072
45075
45077
45079
45082
45084
45087
45090
45093
45096
45098
45102
45106
45109
45117
45120
45123
45125
45127
45132
45134
45140
45142
45147
45149
45151
45153
45155
45157
45159
45165
45167
45170
45172
45174
45178
45189
45191
45195
45202
45207
45209
45211
45215
45219
45222
45228
45231
45238
45243
45248
45254
45256
45261
45265
45271
45273
45277
45283
45288
45294
45298
45301
45304
45306
45309
45311
45314
45318
45326
45331
45336
45340
45342
45345
45350
45352
45354
45356
45359
45361
45364
45366
45371
45373
45376
45379
45384
45387
45390
45394
45400
45405
45409
45416
45421
45426
45428
45432
45437
45439
45441
45443
45445
45447
45450
45454
45456
45458
45461
45466
45468
45473
45475
45477
45480
45487
45489
45491
45493
45498
45503
45511
45514
45518
45520
45524
45529
45534
45541
45545
45550
45553
45555
45558
45562
45564
45568
45574
45577
45581
45585
45587
45595
45600
45606
45610
45612
45619
45621
45625
45627
45631
45634
45639
45641
45643
45645
45647
45650
45654
45656
45658
45661
45665
45672
45675
45678
45686
45688
45690
45693
45699
45702
45708
45712
45715
45718
45720
45722
45725
45732
45735
45738
45742
45747
45750
45752
45758
45764
45768
45773
45777
45781
45784
45787
45793
45798
45801
45805
45807
45810
45813
45815
45817
45820
45822
45825
45828
45831
45838
45844
45849
45853
45857
45859
45862
45865
45869
45874
45876
45880
45884
45886
45889
45892
45895
45903
45907
45910
45912
45915
45918
45924
45928
45930
45933
45937
45940
45943
45945
45948
45952
45956
45959
45962
45964
45966
45969
45974
45980
45987
45993
45996
45998
46002
46005
46008
46010
46015
46019
46021
46024
46027
46029
46032
46035
46039
46041
46045
46048
46051
46057
46060
46064
46066
46071
46075
46079
46082
46085
46087
46089
46091
46096
46099
46101
46104
46106
46108
46112
46114
46116
46120
46122
46125
46130
46135
46139
46141
46143
46145
46148
46152
46154
46156
46158
46164
46166
46168
46174
46176
46181
46184
46191
46199
46206
46210
46213
46218
46222
46224
46227
46231
46234
46236
46240
46243
46245
46252
46257
46264
46266
46270
46276
46278
46282
46284
46287
46290
46294
46299
46303
46306
46308
46310
46314
46316
46320
46325
46328
46332
46334
46338
46343
46345
46348
46351
46354
46358
46360
46362
46365
46370
46375
46378
46381
46384
46390
46397
46400
46405
46408
46410
46415
46419
46426
46428
46431
46436
46438
46440
46448
46454
46461
46463
46467
46470
46473
46476
46480
46483
46486
46490
46492
46495
46497
46500
46503
46510
46513
46516
46518
46522
46527
46530
46535
46538
46540
46543
46546
46551
46553
46559
46565
46569
46571
46574
46578
46583
46587
46591
46594
46596
46599
46605
46607
46609
46612
46617
46619
46622
46624
46626
46628
46632
46636
46638
46642
46645
46649
46651
46653
46656
46659
46661
46666
46670
46673
46678
46683
46689
46692
46695
46698
46701
46703
46705
46708
46710
46712
46716
46720
46726
46732
46734
46739
46743
46749
46753
46759
46763
46768
46771
46773
46775
46779
46784
46787
46789
46792
46794
46796
46798
46800
46803
46807
46810
46815
46820
46822
46827
46829
46836
46838
46842
46848
46853
46857
46859
46861
46864
46866
46868
46871
46876
46880
46882
46884
46886
46888
46893
46895
46897
46899
46902
46906
46909
46918
46926
46928
46930
46933
46936
46942
46944
46947
46949
46954
46956
46959
46962
46965
46969
46971
46975
46977
46979
46981
46989
46992
46994
47003
47011
47016
47019
47022
47025
47028
47030
47033
47036
47040
47044
47046
47048
47050
47052
47055
47058
47061
47063
47066
47069
47073
47075
47079
47081
47086
47088
47091
47093
47097
47099
47101
47107
47110
47112
47116
47120
47122
47125
47127
47132
47138
47142
47147
47151
47155
47160
47163
47165
47169
47174
47176
47178
47181
47184
47188
47192
47199
47203
47208
47210
47212
47217
47220
47225
47227
47229
47232
47235
47238
47240
47242
47244
47246
47248
47250
47255
47261
47264
47266
47271
47276
47285
47290
47293
47297
47302
47307
47310
47321
47328
47331
47335
47337
47343
47349
47355
47362
47364
47366
47369
47376
47378
47380
47383
47385
47387
47391
47394
47397
47403
47409
47414
47417
47420
47424
47427
47429
47436
47441
47445
47453
47458
47462
47464
47467
47469
47471
47478
47483
47488
47494
47501
47507
47511
47517
47520
47522
47524
47527
47533
47537
47542
47544
47547
47549
47551
47555
47559
47561
47565
47567
47570
47577
47580
47583
47587
47592
47596
47598
47601
47603
47609
47611
47613
47616
47619
47621
47625
47628
47630
47634
47636
47644
47647
47649
47652
47654
47657
47659
47664
47669
47672
47676
47679
47682
47687
47691
47693
47697
47703
47705
47712
47714
47716
47718
47721
47724
47730
47732
47738
47742
47751
47756
47759
47764
47766
47771
47773
47778
47781
47784
47786
47788
47790
47793
47797
47800
47804
47806
47811
47814
47816
47819
47826
47828
47832
47834
47837
47839
47843
47847
47849
47853
47855
47858
47861
47867
47869
47874
47879
47881
47883
47889
47895
47900
47907
47910
47916
47919
47921
47923
47925
47928
47932
47934
47936
47940
47946
47953
47960
47964
47969
47975
47979
47982
47986
47988
47990
47992
47997
48002
48007
48010
48013
48017
48021
48024
48027
48029
48033
48037
48041
48046
48052
48055
48059
48066
48069
48072
48075
48078
48081
48084
48087
48089
48093
48096
48099
48104
48111
48114
48119
48121
48124
48127
48130
48132
48135
48138
48140
48142
48147
48149
48154
48156
48159
48161
48164
48168
48171
48174
48177
48179
48185
48187
48189
48194
48198
48203
48207
48209
48212
48215
48219
48221
48225
48228
48232
48237
48240
48243
48247
48250
48252
48255
48259
48263
48266
48270
48276
48279
48288
48290
48294
48300
48303
48306
48309
48311
48313
48318
48322
48324
48329
48334
48337
48339
48341
48345
48350
48354
48358
48360
48363
48366
48369
48372
48375
48381
48384
48390
48392
48395
48397
48404
48409
48413
48417
48423
48432
48436
48439
48442
48448
48450
48453
48458
48460
48462
48465
48468
48470
48474
48477
48482
48490
48495
48497
48501
48504
48507
48510
48515
48517
48519
48522
48526
48528
48532
48534
48540
48543
48546
48550
48554
48556
48561
48564
48568
48571
48573
48581
48583
48585
48588
48590
48592
48594
48599
48602
48605
48608
48611
48615
48617
48619
48622
48624
48627
48630
48633
48638
48641
48644
48647
48652
48658
48666
48672
48675
48677
48680
48683
48685
48687
48689
48695
48698
48702
48707
48712
48714
48716
48720
48724
48729
48733
48736
48741
48747
48755
48758
48762
48767
48770
48772
48774
48777
48785
48790
48792
48795
48801
48804
48807
48810
48815
48818
48821
48824
48828
48837
48839
48841
48843
48846
48848
48852
48854
48856
48861
48864
48868
48870
48873
48876
48878
48880
48884
48888
48892
48894
48900
48906
48911
48919
48925
48928
48932
48936
48938
48941
48945
48951
48954
48957
48960
48963
48965
48968
48972
48975
48977
48980
48987
48991
48993
48997
48999
49002
49008
49011
49013
49016
49019
49021
49023
49026
49029
49032
49034
49037
49039
49041
49043
49050
49052
49059
49063
49065
49067
49071
49074
49077
49080
49083
49086
49088
49093
49098
49100
49102
49104
49107
49110
49112
49114
49116
49119
49124
49126
49130
49134
49139
49144
49149
49151
49155
49157
49160
49163
49169
49173
49176
49180
49185
49188
49191
49194
49197
49199
49203
49205
49207
49209
49214
49217
49221
49224
49226
49229
49232
49235
49242
49244
49247
49251
49254
49260
49263
49266
49269
49271
49277
49281
49286
49293
49296
49300
49302
49305
49308
49310
49314
49316
49319
49324
49329
49331
49337
49344
49347
49353
49356
49358
49365
49367
49369
49374
49377
49383
49386
49388
49392
49394
49398
49400
49403
49407
49409
49413
49415
49419
49421
49423
49425
49429
49433
49436
49439
49443
49447
49451
49453
49456
49462
49464
49466
49469
49477
49480
49482
49488
49491
49498
49502
49505
49508
49511
49513
49515
49518
49524
49529
49531
49534
49537
49539
49542
49549
49554
49561
49566
49570
49574
49577
49579
49588
49590
49593
49597
49599
49604
49608
49610
49620
49623
49626
49628
49636
49638
49641
49644
49649
49655
49659
49662
49665
49667
49671
49675
49677
49680
49683
49685
49687
49693
49700
49707
49712
49716
49720
49723
49725
49728
49731
49734
49737
49740
49743
49746
49748
49750
49755
49758
49761
49765
49767
49772
49776
49779
49783
49787
49790
49794
49798
49803
49805
49810
49814
49820
49827
49832
49834
49836
49838
49841
49847
49851
49854
49857
49859
49863
49866
49869
49874
49878
49881
49887
49890
49894
49896
49898
49901
49905
49908
49910
49913
49917
49922
49924
49929
49932
49934
49937
49941
49946
49949
49954
49961
49963
49967
49969
49971
49975
49978
49981
49986
49990
49999
50001
50004
50008
50010
50012
50016
50022
50024
50027
50031
50035
50037
50039
50043
50049
50052
50055
50057
50060
50062
50068
50073
50081
50089
50093
50098
50101
50103
50107
50109
50113
50115
50118
50120
50124
50127
50133
50141
50145
50148
50151
50155
50157
50163
50167
50169
50171
50175
50177
50184
50186
50189
50196
50200
50202
50208
50211
50215
50217
50219
50223
50225
50228
50231
50238
50240
50242
50246
50249
50251
50256
50261
50265
50268
50271
50273
50275
50277
50279
50282
50285
50289
50294
50297
50301
50304
50309
50312
50315
50319
50325
50329
50333
50338
50340
50342
50345
50349
50354
50356
50361
50365
50367
50369
50373
50375
50379
50382
50385
50388
50390
50394
50397
50399
50403
50406
50409
50411
50413
50417
50421
50426
50430
50436
50439
50441
50443
50445
50448
50451
50453
50461
50466
50469
50475
50478
50482
50484
50487
50492
50495
50499
50501
50505
50508
50511
50514
50519
50523
50525
50530
50534
50536
50538
50544
50547
50549
50554
50558
50560
50562
50565
50567
50569
50571
50574
50579
50583
50590
50592
50595
50598
50601
50603
50606
50609
50611
50613
50615
50618
50620
50622
50629
50632
50634
50641
50647
50650
50652
50656
50658
50660
50663
50667
50670
50675
50678
50680
50683
50685
50691
50694
50697
50699
50701
50703
50707
50711
50718
50720
50723
50726
50729
50735
50738
50741
50745
50750
50753
50757
50760
50762
50765
50768
50771
50774
50778
50780
50784
50786
50790
50793
50796
50798
50801
50805
50807
50810
50813
50817
50819
50822
50825
50829
50833
50838
50847
50853
50855
50859
50861
50863
50866
50869
50873
50877
50883
50885
50888
50891
50895
50897
50901
50904
50906
50908
50915
50917
50919
50921
50927
50929
50936
50940
50945
50949
50954
50960
50966
50970
50973
50976
50980
50982
50985
50987
50989
50992
50996
50999
51004
51006
51011
51013
51015
51021
51027
51029
51034
51040
51043
51047
51049
51051
51053
51058
51060
51062
51064
51066
51069
51072
51075
51078
51081
51083
51087
51093
51098
51101
51106
51110
51113
51118
51123
51125
51129
51132
51135
51138
51141
51143
51146
51149
51151
51154
51156
51164
51170
51173
51178
51182
51184
51188
51190
51192
51194
51196
51198
51201
51207
51210
51213
51217
51221
51226
51229
51237
51242
51247
51251
51257
51262
51266
51269
51274
51276
51280
51282
51285
51287
51291
51295
51297
51302
51305
51308
51310
51312
51315
51318
51320
51323
51329
51332
51336
51341
51344
51347
51351
51355
51357
51363
51366
51369
51371
51373
51375
51378
51383
51389
51393
51395
51398
51402
51405
51411
51417
51419
51423
51426
51430
51432
51434
51437
51439
51441
51443
51446
51449
51451
51455
51458
51462
51464
51470
51475
51477
51479
51482
51484
51488
51494
51498
51502
51507
51509
51511
51515
51517
51519
51521
51524
51528
51530
51534
51538
51542
51544
51546
51548
51551
51555
51558
51560
51563
51567
51569
51571
51573
51575
51578
51583
51586
51592
51594
51598
51602
51604
51606
51608
51611
51613
51617
51621
51623
51625
51627
51632
51635
51640
51645
51647
51651
51658
51661
51665
51670
51673
51680
51683
51687
51692
51696
51698
51701
51706
51708
51711
51713
51716
51718
51721
51723
51725
51728
51731
51734
51736
51739
51744
51747
51750
51753
51756
51762
51768
51772
51776
51779
51782
51784
51786
51788
51793
51800
51803
51806
51808
51811
51815
51818
51822
51831
51833
51838
51841
51843
51849
51852
51854
51857
51861
51864
51872
51875
51879
51885
51894
51901
51906
51913
51916
51920
51922
51927
51932
51935
51938
51941
51945
51947
51950
51952
51955
51960
51963
51965
51969
51971
51974
51977
51979
51981
51983
51986
51990
51994
51999
52002
52004
52007
52010
52012
52014
52018
52021
52025
52027
52029
52034
52036
52039
52043
52048
52057
52061
52063
52070
52074
52076
52079
52082
52085
52088
52090
52095
52100
52103
52105
52109
52112
52114
52118
52122
52130
52135
52142
52150
52155
52157
52161
52164
52166
52168
52172
52175
52180
52183
52185
52187
52190
52192
52198
52201
52203
52207
52212
52214
52216
52220
52224
52228
52235
52241
52244
52247
52249
52253
52255
52257
52260
52262
52265
52268
52270
52272
52274
52279
52281
52287
52289
52292
52295
52298
52300
52303
52305
52307
52310
52313
52323
52328
52332
52337
52341
52343
52345
52348
52350
52354
52358
52361
52364
52370
52374
52376
52381
52385
52389
52393
52399
52403
52406
52408
52413
52415
52417
52421
52425
52429
52431
52433
52437
52441
52443
52448
52452
52456
52460
52462
52465
52467
52471
52473
52477
52481
52486
52488
52492
52494
52498
52500
52505
52509
52514
52517
52523
52530
52532
52535
52537
52541
52544
52548
52550
52556
52559
52562
52565
52569
52574
52579
52582
52588
52592
52598
52600
52603
52605
52610
52615
52618
52622
52624
52626
52630
52632
52637
52642
52645
52649
52654
52659
52664
52668
52675
52678
52681
52684
52687
52690
52695
52700
52702
52704
52709
52711
52713
52716
52720
52722
52724
52726
52730
52732
52736
52739
52746
52751
52754
52757
52764
52768
52770
52773
52776
52778
52780
52785
52788
52793
52796
52799
52801
52804
52808
52811
52817
52820
52828
52831
52833
52836
52840
52843
52847
52850
52852
52854
52857
52861
52863
52866
52871
52876
52882
52886
52889
52891
52897
52903
52907
52912
52919
52921
52925
52928
52930
52932
52935
52942
52944
52949
52952
52955
52959
52963
52965
52968
52970
52973
52976
52982
52984
52990
52992
52994
52996
52999
53003
53009
53015
53020
53022
53024
53027
53029
53037
53040
53042
53048
53051
53053
53057
53059
53063
53066
53068
53072
53077
53080
53085
53091
53096
53100
53102
53104
53110
53113
53115
53119
53122
53125
53129
53132
53135
53140
53143
53145
53153
53157
53161
53165
53167
53170
53173
53176
53180
53182
53184
53186
53188
53191
53193
53195
53198
53200
53202
53205
53208
53210
53213
53218
53223
53226
53229
53238
53245
53248
53252
53258
53260
53262
53264
53267
53270
53272
53274
53276
53279
53283
53290
53294
53299
53301
53303
53306
53312
53315
53318
53321
53323
53326
53329
53331
53333
53339
53342
53344
53346
53351
53354
53357
53360
53366
53368
53373
53378
53385
53387
53390
53394
53399
53401
53405
53408
53412
53415
53418
53420
53423
53425
53430
53434
53439
53444
53452
53458
53463
53470
53473
53476
53478
53480
53482
53485
53487
53492
53496
53503
53506
53509
53511
53516
53518
53520
53523
53526
53530
53537
53542
53545
53548
53550
53552
53555
53558
53560
53564
53569
53572
53577
53579
53581
53585
53588
53590
53594
53596
53600
53603
53607
53612
53614
53622
53626
53631
53637
53639
53641
53644
53648
53651
53653
53656
53658
53660
53664
53666
53669
53671
53673
53675
53678
53681
53684
53686
53688
53692
53696
53698
53702
53705
53711
53717
53720
53722
53724
53726
53729
53731
53734
53736
53738
53741
53744
53747
53750
53752
53756
53762
53765
53771
53774
53777
53780
53782
53786
53788
53791
53794
53798
53802
53804
53807
53809
53812
53816
53819
53822
53824
53828
53833
53836
53839
53848
53853
53856
53858
53860
53863
53869
53872
53878
53881
53885
53888
53891
53893
53897
53899
53902
53905
53909
53912
53916
53918
53922
53925
53927
53930
53934
53939
53942
53944
53948
53951
53954
53957
53960
53963
53966
53969
53971
53975
53978
53983
53986
53990
53993
53999
54002
54005
54008
54011
54014
54017
54020
54024
54026
54031
54034
54038
54044
54046
54049
54053
54056
54058
54062
54065
54068
54072
54079
54086
54092
54096
54101
54103
54106
54108
54112
54116
54119
54121
54124
54127
54130
54134
54138
54142
54146
54149
54151
54153
54156
54158
54163
54166
54168
54172
54174
54176
54178
54180
54182
54185
54188
54191
54197
54201
54206
54209
54211
54214
54216
54219
54224
54227
54232
54234
54239
54242
54245
54249
54251
54257
54259
54263
54269
54271
54277
54283
54289
54292
54296
54299
54302
54304
54310
54314
54318
54326
54330
54332
54335
54341
54344
54347
54350
54352
54354
54356
54360
54364
54366
54368
54371
54374
54377
54380
54384
54388
54390
54392
54398
54402
54411
54416
54419
54424
54428
54430
54432
54437
54443
54446
54448
54452
54454
54458
54461
54464
54466
54468
54470
54475
54478
54480
54482
54485
54487
54491
54493
54496
54498
54504
54506
54508
54515
54517
54520
54524
54530
54535
54539
54542
54545
54548
54550
54554
54557
54559
54562
54567
54572
54576
54578
54580
54587
54590
54595
54599
54601
54605
54610
54613
54616
54622
54626
54628
54630
54634
54636
54640
54646
54652
54655
54658
54664
54668
54670
54676
54681
54683
54686
54689
54695
54698
54701
54704
54707
54712
54715
54719
54722
54727
54731
54734
54740
54743
54748
54753
54755
54760
54764
54766
54769
54772
54774
54776
54779
54782
54788
54790
54793
54802
54805
54809
54812
54816
54818
54820
54823
54827
54830
54833
54838
54842
54845
54847
54851
54856
54859
54861
54864
54866
54872
54878
54886
54894
54899
54901
54904
54910
54915
54920
54925
54930
54932
54935
54938
54942
54944
54946
54948
54950
54957
54962
54966
54971
54974
54976
54978
54980
54982
54984
54988
54991
54995
54998
55004
55007
55009
55011
55013
55017
55019
55025
55028
55033
55035
55037
55040
55043
55046
55049
55052
55055
55058
55064
55068
55070
55073
55075
55079
55082
55085
55088
55092
55098
55104
55108
55111
55113
55118
55121
55125
55133
55135
55141
55145
55148
55150
55154
55157
55160
55163
55165
55168
55175
55178
55180
55185
55189
55195
55198
55201
55204
55208
55210
55216
55222
55226
55228
55234
55238
55241
55244
55248
55256
55264
55269
55271
55275
55277
55279
55281
55284
55288
55292
55294
55296
55298
55301
55304
55306
55310
55312
55314
55316
55320
55323
55327
55329
55332
55334
55337
55342
55349
55351
55354
55357
55360
55363
55367
55370
55373
55375
55377
55382
55385
55388
55392
55394
55396
55401
55406
55410
55415
55421
55427
55433
55437
55439
55442
55444
55448
55454
55456
55460
55463
55466
55468
55471
55475
55477
55480
55484
55486
55489
55491
55493
55496
55498
55507
55510
55512
55516
55519
55522
55526
55529
55534
55537
55540
55544
55547
55550
55552
55555
55558
55562
55564
55568
55570
55574
55577
55580
55585
55588
55590
55595
55598
55604
55609
55612
55616
55622
55625
55630
55633
55638
55643
55646
55648
55651
55655
55661
55668
55674
55682
55687
55690
55694
55699
55703
55706
55712
55714
55717
55721
55727
55730
55732
55734
55736
55740
55742
55745
55748
55750
55755
55759
55763
55766
55772
55775
55777
55780
55786
55790
55792
55794
55799
55801
55803
55805
55808
55810
55814
55817
55820
55823
55826
55828
55835
55839
55844
55847
55849
55854
55856
55862
55868
55874
55876
55879
55883
55886
55888
55892
55894
55899
55903
55907
55909
55911
55914
55916
55920
55923
55928
55931
55933
55936
55939
55942
55946
55948
55952
55955
55964
55966
55970
55974
55977
55980
55982
55985
55987
55991
55994
55997
56000
56006
56008
56013
56015
56017
56019
56021
56024
56027
56034
56039
56045
56047
56052
56056
56059
56061
56063
56066
56068
56070
56072
56074
56078
56082
56084
56087
56092
56098
56100
56102
56104
56107
56114
56116
56119
56124
56126
56128
56132
56137
56139
56142
56146
56153
56159
56161
56165
56169
56171
56174
56176
56178
56180
56183
56186
56188
56192
56195
56200
56203
56206
56208
56212
56216
56222
56225
56227
56230
56234
56239
56244
56247
56253
56255
56259
56261
56264
56267
56270
56272
56276
56279
56282
56285
56288
56294
56299
56301
56303
56307
56309
56314
56317
56320
56324
56329
56333
56339
56342
56346
56348
56354
56357
56364
56369
56374
56376
56381
56385
56387
56390
56393
56396
56398
56403
56406
56408
56413
56416
56420
56422
56426
56429
56433
56436
56440
56448
56456
56458
56462
56464
56468
56472
56474
56476
56480
56482
56485
56488
56490
56492
56495
56501
56506
56511
56513
56519
56522
56526
56530
56533
56539
56541
56543
56546
56550
56552
56555
56562
56564
56566
56568
56572
56576
56579
56581
56584
56586
56588
56590
56594
56597
56599
56608
56612
56618
56622
56624
56627
56630
56632
56635
56639
56641
56643
56645
56647
56649
56652
56654
56657
56662
56665
56670
56672
56677
56684
56691
56699
56704
56707
56710
56717
56719
56722
56726
56729
56734
56738
56744
56749
56753
56757
56759
56762
56765
56768
56771
56777
56782
56789
56791
56794
56797
56803
56808
56811
56814
56816
56821
56824
56828
56831
56835
56837
56842
56849
56852
56855
56860
56868
56870
56873
56877
56879
56882
56887
56890
56898
56902
56908
56912
56915
56923
56926
56928
56931
56933
56935
56940
56945
56953
56956
56960
56965
56969
56973
56976
56978
56983
56985
56990
56995
56999
57005
57010
57014
57017
57022
57024
57029
57031
57034
57037
57042
57046
57050
57053
57056
57058
57061
57064
57070
57077
57080
57083
57086
57091
57095
57097
57101
57104
57107
57110
57114
57116
57120
57122
57125
57127
57130
57133
57136
57142
57150
57156
57160
57164
57169
57173
57176
57179
57182
57184
57191
57194
57197
57200
57203
57205
57207
57212
57218
57224
57230
57236
57241
57244
57250
57256
57259
57261
57265
57267
57272
57274
57278
57281
57284
57287
57289
57294
57296
57299
57301
57303
57308
57310
57315
57323
57328
57331
57335
57338
57343
57349
57352
57355
57358
57361
57363
57368
57370
57372
57375
57379
57383
57385
57388
57392
57398
57403
57406
57410
57413
57417
57419
57421
57425
57429
57431
57436
57440
57442
57446
57450
57455
57458
57464
57467
57470
57473
57476
57483
57489
57491
57494
57497
57501
57504
57508
57510
57512
57514
57518
57523
57526
57530
57534
57536
57539
57543
57545
57547
57553
57556
57560
57563
57567
57570
57572
57578
57583
57587
57590
57594
57597
57599
57602
57604
57607
57613
57617
57619
57621
57624
57628
57631
57633
57635
57638
57641
57646
57650
57654
57657
57662
57664
57668
57670
57673
57676
57679
57682
57686
57691
57694
57696
57700
57702
57704
57706
57712
57722
57724
57729
57732
57739
57742
57747
57752
57754
57758
57762
57766
57769
57772
57774
57777
57782
57786
57788
57790
57792
57794
57800
57802
57805
57808
57811
57814
57817
57819
57825
57827
57833
57836
57841
57843
57848
57854
57856
57859
57861
57864
57866
57868
57870
57873
57876
57879
57881
57886
57890
57895
57898
57902
57907
57911
57913
57915
57917
57919
57925
57928
57933
57937
57940
57942
57949
57951
57953
57955
57958
57961
57964
57967
57974
57979
57982
57988
57991
57994
57997
58000
58003
58008
58011
58013
58022
58027
58035
58041
58044
58047
58049
58054
58056
58059
58064
58068
58076
58080
58082
58085
58090
58093
58096
58099
58103
58105
58108
58112
58114
58118
58121
58124
58130
58136
58139
58141
58144
58146
58148
58151
58156
58161
58165
58167
58169
58175
58178
58184
58189
58192
58196
58198
58201
58204
58207
58211
58213
58215
58223
58225
58228
58230
58232
58235
58239
58242
58249
58251
58255
58262
58269
58272
58276
58279
58281
58288
58293
58298
58301
58304
58308
58310
58315
58318
58321
58328
58332
58334
58342
58345
58347
58349
58353
58355
58362
58364
58370
58372
58376
58378
58380
58384
58387
58391
58395
58400
58402
58405
58408
58410
58412
58416
58419
58421
58424
58429
58432
58435
58441
58448
58453
58455
58461
58465
58469
58473
58475
58478
58483
58485
58488
58495
58502
58508
58511
58515
58517
58519
58522
58524
58528
58531
58534
58538
58543
58547
58549
58551
58553
58555
58557
58561
58566
58570
58573
58580
58586
58588
58590
58594
58596
58599
58604
58607
58609
58612
58616
58621
58624
58626
58628
58631
58633
58636
58639
58642
58647
58649
58655
58659
58664
58667
58670
58673
58676
58678
58681
58683
58687
58693
58695
58697
58701
58703
58706
58709
58712
58714
58716
58724
58726
58730
58733
58735
58739
58741
58746
58748
58750
58755
58763
58767
58771
58773
58775
58780
58784
58787
58791
58798
58802
58810
58817
58819
58822
58824
58828
58831
58834
58837
58840
58843
58848
58850
58855
58859
58861
58865
58867
58870
58874
58877
58882
58884
58886
58889
58891
58897
58899
58901
58905
58907
58911
58917
58919
58924
58926
58928
58935
58940
58945
58948
58950
58952
58955
58958
58961
58963
58966
58968
58971
58975
58978
58982
58985
58990
58992
58996
59001
59005
59008
59011
59016
59020
59023
59026
59029
59035
59043
59045
59049
59051
59054
59059
59062
59069
59071
59076
59084
59089
59091
59095
59098
59103
59106
59108
59114
59118
59120
59124
59128
59131
59134
59137
59140
59142
59144
59146
59149
59152
59154
59156
59162
59164
59167
59173
59176
59178
59181
59186
59188
59191
59193
59195
59198
59200
59202
59205
59212
59215
59217
59221
59223
59225
59229
59231
59233
59237
59241
59248
59250
59252
59257
59259
59266
59272
59275
59280
59283
59285
59288
59292
59294
59299
59305
59309
59313
59317
59324
59332
59338
59343
59348
59355
59357
59359
59362
59364
59367
59371
59374
59378
59383
59385
59392
59394
59396
59398
59402
59404
59406
59409
59413
59417
59420
59422
59425
59427
59429
59432
59437
59440
59442
59445
59449
59451
59453
59455
59458
59461
59464
59467
59469
59471
59474
59476
59479
59481
59483
59486
59488
59492
59496
59500
59507
59509
59512
59516
59519
59521
59523
59526
59528
59534
59536
59540
59545
59551
59553
59555
59559
59561
59563
59565
59567
59572
59574
59580
59585
59589
59593
59600
59604
59608
59612
59615
59620
59622
59625
59629
59631
59633
59636
59641
59647
59651
59653
59656
59659
59661
59664
59666
59668
59670
59672
59674
59678
59680
59682
59685
59688
59690
59692
59694
59696
59701
59704
59707
59713
59717
59720
59723
59728
59733
59737
59740
59744
59746
59749
59752
59755
59758
59762
59764
59769
59771
59773
59777
59782
59785
59788
59791
59794
59797
59800
59803
59805
59809
59811
59813
59815
59817
59822
59824
59826
59829
59834
59839
59841
59849
59855
59857
59861
59864
59866
59872
59876
59878
59881
59883
59885
59887
59889
59891
59898
59902
59904
59910
59913
59916
59919
59921
59924
59926
59931
59934
59936
59939
59943
59945
59948
59951
59953
59955
59960
59963
59966
59969
59971
59977
59979
59982
59985
59989
59995
60001
60004
60009
60014
60020
60022
60025
60032
60035
60037
60040
60045
60047
60049
60052
60055
60058
60060
60067
60072
60080
60086
60088
60095
60100
60103
60105
60110
60112
60115
60118
60123
60125
60127
60133
60140
60145
60147
60151
60156
60160
60163
60166
60172
60174
60177
60180
60186
60188
60193
60195
60199
60202
60205
60212
60214
60216
60220
60223
60226
60228
60230
60233
60237
60241
60243
60245
60247
60258
60263
60266
60272
60274
60280
60283
60285
60290
60292
60295
60300
60303
60307
60309
60311
60317
60321
60326
60330
60339
60344
60348
60351
60353
60355
60357
60359
60361
60363
60366
60370
60373
60375
60382
60386
60388
60391
60394
60397
60400
60403
60406
60410
60412
60416
60418
60421
60425
60427
60430
60435
60439
60441
60446
60453
60456
60459
60461
60463
60469
60471
60474
60476
60483
60486
60488
60490
60493
60496
60502
60505
60507
60513
60519
60523
60527
60531
60533
60535
60540
60543
60545
60548
60550
60553
60557
60562
60565
60568
60570
60574
60577
60580
60588
60594
60597
60600
60605
60607
60609
60611
60613
60615
60618
60622
60629
60635
60637
60641
60647
60651
60655
60661
60665
60667
60670
60673
60675
60677
60679
60681
60685
60687
60691
60694
60698
60701
60705
60709
60712
60718
60720
60724
60727
60729
60734
60738
60744
60748
60751
60754
60759
60765
60769
60772
60775
60778
60781
60784
60787
60793
60797
60801
60805
60811
60814
60817
60819
60822
60827
60829
60832
60838
60840
60843
60846
60853
60856
60861
60867
60871
60874
60876
60879
60883
60889
60892
60897
60902
60905
60909
60915
60917
60919
60921
60925
60927
60930
60933
60937
60940
60943
60946
60949
60953
60955
60958
60960
60963
60966
60973
60975
60979
60982
60985
60988
60991
60993
60996
61001
61003
61006
61008
61011
61014
61017
61021
61030
61033
61037
61039
61041
61044
61051
61053
61063
61066
61072
61075
61078
61080
61083
61087
61096
61099
61102
61107
61114
61117
61119
61122
61126
61131
61134
61136
61145
61151
61155
61162
61165
61168
61171
61174
61177
61183
61186
61189
61194
61196
61201
61203
61210
61213
61219
61221
61224
61228
61231
61233
61235
61237
61240
61242
61244
61247
61249
61252
61255
61257
61259
61261
61264
61269
61273
61275
61279
61283
61286
61291
61294
61299
61303
61305
61310
61313
61315
61317
61322
61324
61327
61330
61337
61340
61343
61346
61348
61352
61355
61363
61365
61369
61373
61376
61381
61387
61395
61402
61407
61413
61416
61419
61423
61425
61429
61433
61435
61440
61444
61448
61452
61455
61462
61467
61471
61473
61477
61479
61483
61486
61489
61492
61495
61498
61501
61504
61507
61510
61515
61519
61521
61525
61527
61529
61531
61534
61536
61543
61546
61549
61553
61555
61557
61561
61565
61570
61574
61576
61578
61582
61587
61591
61594
61598
61602
61604
61608
61614
61616
61621
61629
61636
61638
61642
61644
61646
61648
61650
61653
61655
61657
61661
61664
61666
61671
61675
61678
61680
61683
61690
61692
61696
61699
61701
61704
61708
61710
61713
61716
61722
61724
61726
61729
61731
61734
61737
61741
61744
61747
61749
61752
61755
61757
61759
61764
61773
61779
61782
61785
61789
61792
61794
61796
61800
61803
61806
61809
61812
61815
61819
61823
61827
61830
61836
61839
61843
61847
61850
61858
61865
61870
61873
61876
61880
61882
61887
61889
61891
61895
61897
61899
61902
61908
61913
61916
61921
61925
61929
61933
61935
61938
61940
61943
61948
61954
61958
61960
61963
61968
61973
61975
61977
61981
61990
61992
61995
61999
62002
62008
62011
62014
62016
62021
62023
62027
62029
62031
62035
62038
62040
62043
62045
62048
62051
62055
62059
62066
62074
62082
62086
62089
62091
62097
62104
62107
62112
62118
62120
62122
62124
62126
62129
62132
62134
62136
62139
62145
62148
62152
62155
62158
62160
62163
62166
62168
62170
62172
62176
62181
62185
62189
62195
62199
62203
62206
62210
62212
62215
62219
62221
62223
62227
62230
62233
62236
62241
62244
62248
62254
62257
62260
62266
62268
62272
62275
62277
62280
62283
62287
62292
62296
62303
62307
62315
62321
62325
62327
62329
62331
62334
62337
62339
62343
62347
62349
62352
62355
62358
62361
62364
62366
62368
62374
62380
62382
62387
62389
62393
62398
62401
62403
62407
62409
62412
62416
62418
62422
62425
62428
62433
62438
62443
62445
62447
62450
62453
62459
62467
62472
62475
62477
62481
62485
62488
62493
62496
62499
62501
62504
62506
62509
62511
62513
62515
62519
62521
62525
62528
62530
62535
62538
62541
62543
62548
62553
62555
62559
62562
62567
62569
62573
62575
62577
62581
62586
62589
62594
62597
62601
62606
62611
62615
62617
62620
62628
62631
62637
62639
62644
62647
62650
62653
62655
62657
62660
62662
62665
62668
62672
62674
62678
62681
62685
62690
62695
62702
62707
62710
62715
62717
62719
62722
62727
62732
62737
62740
62742
62746
62749
62753
62755
62757
62760
62763
62770
62773
62776
62778
62780
62783
62788
62792
62794
62796
62799
62805
62808
62813
62818
62823
62826
62831
62839
62841
62843
62848
62854
62858
62860
62863
62865
62867
62869
62872
62877
62879
62881
62884
62887
62891
62896
62902
62904
62906
62910
62915
62919
62922
62929
62932
62937
62941
62944
62946
62948
62950
62952
62955
62962
62965
62968
62970
62973
62976
62981
62986
62988
62992
62995
62998
63002
63004
63008
63010
63015
63019
63024
63027
63030
63033
63035
63037
63042
63047
63051
63054
63058
63060
63063
63069
63075
63082
63084
63088
63090
63096
63100
63103
63107
63109
63113
63115
63117
63121
63124
63126
63130
63135
63139
63142
63145
63147
63153
63159
63167
63174
63177
63185
63193
63195
63201
63207
63210
63217
63223
63228
63231
63235
63237
63241
63243
63247
63250
63253
63255
63260
63263
63266
63269
63271
63274
63276
63279
63283
63288
63291
63296
63302
63307
63309
63316
63319
63325
63328
63332
63334
63336
63339
63347
63352
63355
63357
63360
63362
63368
63372
63374
63376
63378
63383
63385
63387
63391
63395
63399
63403
63406
63409
63411
63415
63418
63422
63425
63429
63433
63440
63442
63444
63448
63451
63455
63458
63460
63464
63466
63468
63471
63474
63477
63480
63482
63485
63491
63493
63495
63497
63500
63502
63505
63508
63510
63512
63517
63520
63523
63526
63534
63538
63541
63544
63546
63549
63553
63555
63558
63562
63564
63567
63571
63575
63577
63579
63583
63585
63589
63592
63594
63597
63603
63607
63609
63617
63626
63628
63632
63636
63639
63642
63650
63655
63658
63661
63663
63667
63671
63674
63676
63682
63688
63691
63694
63696
63701
63704
63708
63711
63715
63717
63720
63723
63725
63727
63729
63732
63735
63739
63747
63750
63752
63755
63757
63760
63762
63765
63767
63774
63778
63780
63783
63786
63790
63795
63799
63802
63808
63815
63821
63830
63835
63842
63844
63849
63852
63854
63858
63860
63862
63866
63868
63870
63873
63877
63882
63884
63887
63889
63892
63895
63901
63905
63907
63910
63913
63915
63920
63927
63933
63937
63939
63941
63947
63953
63955
63957
63960
63963
63966
63969
63975
63978
63980
63984
63987
63992
63999
64002
64005
64010
64012
64016
64018
64021
64024
64026
64030
64033
64036
64039
64041
64046
64052
64056
64058
64062
64065
64069
64076
64085
64088
64090
64092
64095
64099
64102
64107
64110
64113
64117
64122
64127
64133
64137
64141
64144
64146
64148
64150
64154
64156
64159
64162
64167
64170
64176
64179
64184
64186
64189
64192
64197
64204
64208
64210
64213
64215
64222
64225
64227
64230
64232
64235
64241
64243
64245
64248
64254
64258
64261
64263
64265
64267
64270
64275
64281
64283
64285
64289
64294
64301
64308
64317
64321
64323
64326
64329
64334
64338
64341
64344
64350
64352
64354
64358
64361
64363
64367
64371
64375
64377
64380
64385
64389
64392
64394
64397
64401
64406
64410
64412
64414
64419
64422
64426
64439
64441
64443
64449
64452
64456
64458
64461
64465
64468
64473
64477
64479
64483
64489
64492
64495
64498
64500
64508
64514
64522
64529
64532
64534
64536
64539
64542
64545
64548
64551
64556
64559
64561
64563
64567
64570
64573
64577
64579
64585
64588
64593
64597
64599
64605
64612
64614
64617
64621
64623
64626
64629
64635
64638
64642
64644
64647
64650
64656
64659
64661
64664
64668
64670
64677
64679
64683
64690
64696
64700
64704
64707
64709
64712
64714
64717
64721
64728
64735
64737
64740
64747
64752
64754
64758
64761
64764
64767
64771
64773
64779
64784
64786
64790
64793
64795
64799
64801
64804
64807
64809
64811
64815
64817
64820
64822
64824
64827
64830
64832
64836
64847
64849
64852
64857
64859
64863
64867
64870
64873
64876
64878
64880
64885
64888
64890
64893
64895
64901
64903
64905
64907
64914
64917
64919
64928
64933
64936
64940
64944
64947
64950
64952
64955
64957
64961
64966
64970
64974
64977
64980
64984
64989
64992
64994
64997
64999
65001
65004
65007
65012
65018
65020
65023
65026
65029
65038
65040
65044
65046
65052
65055
65057
65061
65064
65067
65072
65075
65079
65083
65088
65090
65094
65102
65107
65112
65121
65127
65129
65134
65136
65138
65142
65145
65149
65154
65157
65160
65163
65166
65168
65172
65175
65181
65185
65191
65193
65201
65203
65205
65209
65211
65214
65217
65219
65223
65226
65228
65230
65234
65236
65240
65243
65250
65257
65261
65263
65268
65275
65277
65280
65282
65284
65288
65290
65294
65296
65300
65304
65307
65310
65312
65315
65319
65322
65328
65333
65336
65344
65349
65351
65354
65357
65360
65362
65364
65369
65374
65377
65379
65383
65386
65389
65391
65394
65396
65398
65400
65403
65406
65408
65411
65415
65419
65421
65425
65429
65432
65436
65439
65442
65445
65451
65454
65459
65461
65463
65466
65468
65472
65474
65477
65481
65484
65488
65490
65493
65497
65502
65506
65509
65511
65514
65519
65523
65527
65533
65538
65543
65552
65555
65558
65561
65563
65565
65567
65569
65571
65574
65576
65578
65580
65584
65586
65589
65592
65595
65598
65601
65604
65607
65610
65612
65614
65616
65621
65627
65635
65641
65644
65648
65650
65653
65656
65658
65664
65669
65672
65676
65682
65685
65689
65691
65694
65697
65699
65702
65706
65708
65711
65716
65718
65721
65727
65732
65735
65739
65742
65744
65748
65752
65757
65759
65764
65766
65769
65771
65776
65778
65780
65784
65787
65792
65796
65800
65804
65806
65808
65812
65815
65818
65821
65823
65827
65829
65835
65839
65845
65849
65853
65858
65869
65871
65875
65879
65884
65887
65890
65892
65895
65898
65901
65903
65906
65912
65914
65916
65919
65921
65928
65930
65935
65941
65950
65956
65960
65966
65970
65973
65975
65979
65985
65989
65991
65994
65996
66000
66004
66006
66009
66011
66013
66015
66019
66021
66026
66030
66033
66036
66038
66040
66042
66045
66048
66051
66056
66058
66061
66066
66071
66074
66076
66078
66081
66083
66086
66088
66090
66092
66096
66099
66102
66105
66111
66114
66118
66120
66122
66127
66129
66132
66134
66137
66139
66141
66143
66147
66149
66152
66157
66162
66164
66166
66168
66174
66177
66182
66188
66190
66194
66197
66208
66210
66213
66217
66219
66223
66226
66229
66231
66235
66237
66242
66246
66251
66256
66258
66262
66264
66268
66273
66280
66283
66285
66288
66291
66294
66297
66300
66303
66307
66309
66312
66315
66318
66321
66325
66327
66333
66336
66338
66342
66344
66346
66349
66351
66354
66357
66360
66363
66366
66372
66375
66382
66387
66389
66392
66399
66402
66404
66406
66408
66411
66413
66419
66421
66426
66429
66433
66436
66441
66447
66452
66455
66459
66461
66463
66465
66468
66471
66474
66477
66480
66483
66486
66492
66495
66498
66500
66504
66507
66510
66512
66516
66518
66520
66524
66527
66532
66535
66541
66549
66552
66554
66556
66560
66564
66567
66570
66572
66575
66579
66582
66585
66590
66594
66599
66601
66603
66605
66609
66615
66623
66635
66642
66645
66649
66651
66654
66657
66660
66662
66664
66667
66669
66672
66678
66683
66687
66692
66696
66699
66701
66704
66710
66712
66714
66717
66723
66726
66728
66734
66740
66747
66749
66751
66753
66756
66759
66762
66764
66768
66773
66776
66779
66783
66786
66788
66790
66794
66796
66802
66809
66814
66816
66819
66824
66828
66830
66834
66840
66842
66844
66846
66849
66852
66855
66858
66860
66862
66865
66867
66870
66874
66877
66882
66884
66888
66890
66892
66897
66900
66905
66907
66910
66915
66918
66921
66927
66930
66933
66936
66940
66944
66949
66954
66956
66958
66963
66972
66974
66976
66978
66983
66986
66990
66993
66998
67001
67003
67005
67007
67009
67012
67015
67018
67020
67022
67028
67033
67040
67047
67052
67054
67058
67061
67065
67068
67070
67074
67077
67080
67084
67086
67090
67092
67095
67098
67100
67102
67105
67107
67109
67113
67115
67119
67122
67125
67128
67131
67133
67138
67140
67143
67146
67152
67155
67159
67161
67167
67173
67176
67178
67182
67184
67186
67190
67193
67195
67197
67200
67203
67205
67208
67210
67214
67218
67220
67224
67227
67232
67234
67242
67246
67253
67259
67263
67268
67275
67279
67281
67284
67287
67290
67293
67299
67302
67305
67309
67311
67314
67317
67320
67326
67329
67331
67334
67341
67347
67350
67353
67356
67359
67361
67364
67367
67370
67374
67378
67381
67385
67389
67392
67396
67400
67403
67406
67408
67411
67416
67418
67424
67428
67432
67441
67444
67450
67452
67454
67457
67459
67461
67464
67467
67470
67472
67474
67478
67481
67485
67488
67491
67494
67498
67501
67504
67507
67510
67512
67514
67516
67524
67530
67533
67538
67544
67546
67550
67555
67557
67563
67568
67570
67573
67578
67581
67583
67585
67588
67590
67593
67596
67601
67604
67607
67609
67611
67617
67620
67623
67628
67632
67635
67639
67644
67647
67653
67656
67661
67664
67667
67669
67671
67673
67680
67689
67693
67698
67701
67706
67710
67713
67717
67719
67722
67725
67728
67730
67732
67736
67740
67744
67746
67749
67751
67754
67759
67762
67765
67773
67780
67785
67791
67794
67797
67800
67803
67814
67818
67823
67826
67831
67833
67836
67840
67842
67845
67848
67851
67854
67857
67859
67863
67866
67868
67870
67874
67880
67883
67887
67891
67894
67897
67900
67902
67905
67907
67909
67912
67915
67918
67929
67931
67933
67938
67940
67946
67948
67951
67954
67959
67961
67964
67968
67973
67978
67982
67984
67988
67994
67997
68000
68009
68015
68019
68024
68027
68031
68034
68037
68041
68045
68049
68052
68056
68058
68061
68064
68070
68072
68075
68080
68082
68088
68094
68096
68098
68103
68106
68108
68114
68116
68121
68124
68128
68133
68135
68138
68141
68143
68145
68147
68150
68152
68158
68160
68163
68165
68167
68169
68171
68174
68177
68180
68182
68187
68189
68191
68193
68196
68199
68202
68205
68207
68211
68217
68219
68222
68224
68228
68230
68234
68241
68243
68246
68249
68252
68254
68260
68265
68268
68271
68273
68277
68279
68285
68288
68291
68295
68299
68305
68308
68313
68317
68320
68325
68327
68331
68334
68337
68343
68346
68348
68350
68353
68358
68360
68362
68364
68370
68373
68376
68380
68383
68385
68387
68390
68393
68396
68403
68409
68411
68415
68418
68420
68424
68429
68435
68441
68444
68447
68449
68451
68455
68457
68459
68462
68464
68469
68474
68478
68487
68489
68492
68497
68500
68503
68506
68508
68511
68515
68519
68522
68525
68529
68531
68535
68537
68543
68545
68551
68556
68564
68572
68583
68588
68591
68594
68598
68601
68604
68606
68608
68613
68616
68622
68627
68631
68633
68637
68640
68643
68646
68651
68654
68657
68664
68667
68669
68673
68677
68679
68681
68684
68687
68691
68693
68697
68701
68705
68709
68712
68714
68717
68720
68724
68727
68731
68737
68741
68744
68746
68749
68754
68758
68765
68771
68774
68776
68780
68783
68786
68789
68791
68796
68798
68800
68804
68807
68809
68813
68816
68820
68826
68828
68832
68835
68838
68840
68846
68849
68856
68862
68864
68866
68869
68876
68879
68882
68886
68892
68895
68898
68901
68904
68908
68910
68913
68916
68923
68927
68929
68934
68939
68944
68948
68954
68959
68961
68963
68967
68970
68973
68975
68977
68982
68984
68986
68990
68994
68996
68999
69004
69006
69008
69012
69014
69016
69018
69024
69031
69033
69039
69043
69045
69050
69054
69056
69060
69065
69069
69074
69080
69085
69091
69093
69097
69102
69104
69107
69110
69114
69118
69120
69123
69126
69129
69131
69134
69136
69138
69141
69144
69146
69149
69154
69160
69166
69172
69178
69184
69188
69190
69195
69197
69200
69208
69212
69217
69220
69224
69227
69232
69234
69239
69242
69245
69250
69252
69254
69257
69259
69262
69265
69268
69272
69278
69281
69285
69291
69295
69302
69306
69312
69315
69317
69321
69324
69326
69330
69333
69336
69340
69342
69345
69348
69350
69355
69359
69362
69367
69369
69372
69374
69376
69379
69382
69385
69396
69399
69401
69403
69406
69410
69414
69417
69419
69422
69426
69429
69433
69436
69440
69445
69449
69455
69457
69459
69462
69466
69472
69478
69488
69491
69494
69498
69500
69503
69506
69515
69518
69520
69524
69528
69531
69533
69536
69539
69541
69543
69546
69551
69557
69561
69563
69572
69575
69579
69581
69588
69591
69593
69597
69602
69605
69607
69609
69612
69619
69621
69624
69627
69630
69635
69637
69642
69648
69656
69661
69663
69666
69668
69670
69673
69676
69680
69686
69691
69695
69698
69700
69702
69706
69708
69711
69713
69717
69719
69722
69727
69729
69734
69740
69745
69747
69753
69756
69758
69761
69764
69768
69770
69774
69776
69779
69782
69785
69789
69792
69794
69797
69805
69810
69815
69818
69823
69827
69830
69832
69836
69839
69843
69845
69848
69851
69858
69860
69864
69867
69871
69876
69882
69886
69889
69895
69901
69903
69908
69911
69913
69916
69918
69921
69923
69925
69935
69938
69940
69942
69944
69948
69953
69956
69959
69962
69964
69966
69968
69971
69975
69977
69981
69987
69990
69993
69996
69999
70002
70004
70007
70009
70013
70016
70020
70024
70026
70028
70033
70035
70040
70042
70045
70052
70055
70058
70061
70064
70068
70070
70073
70075
70077
70080
70085
70087
70089
70092
70094
70096
70100
70103
70106
70110
70113
70115
70118
70122
70124
70130
70134
70139
70142
70146
70149
70151
70154
70158
70164
70169
70172
70180
70183
70186
70191
70196
70198
70201
70204
70207
70211
70214
70216
70218
70222
70224
70230
70241
70245
70250
70252
70257
70263
70266
70269
70273
70277
70279
70283
70288
70290
70292
70296
70300
70307
70310
70312
70315
70317
70321
70324
70329
70332
70337
70342
70346
70350
70353
70357
70361
70364
70367
70369
70375
70378
70380
70385
70388
70394
70398
70400
70404
70406
70410
70414
70418
70420
70423
70426
70428
70430
70435
70439
70443
70450
70453
70457
70461
70466
70468
70471
70475
70477
70480
70484
70488
70491
70493
70495
70498
70500
70502
70504
70506
70508
70514
70517
70520
70524
70527
70531
70533
70539
70543
70550
70556
70559
70561
70565
70568
70572
70577
70580
70590
70592
70595
70600
70604
70608
70615
70619
70624
70628
70632
70634
70639
70643
70647
70651
70657
70665
70673
70677
70679
70681
70683
70686
70688
70691
70698
70700
70704
70709
70715
70718
70723
70727
70729
70731
70733
70739
70742
70745
70747
70750
70754
70757
70759
70762
70765
70771
70774
70776
70778
70780
70783
70786
70793
70797
70800
70805
70808
70810
70814
70818
70821
70824
70827
70831
70833
70835
70837
70840
70843
70849
70853
70856
70861
70863
70866
70869
70873
70877
70881
70883
70886
70889
70891
70895
70897
70901
70903
70907
70910
70913
70916
70919
70921
70923
70925
70928
70931
70937
70941
70944
70946
70950
70957
70959
70962
70966
70971
70974
70976
70978
70987
70993
70997
71003
71010
71012
71017
71021
71023
71025
71029
71033
71036
71040
71043
71048
71051
71055
71058
71061
71068
71071
71075
71078
71081
71084
71089
71092
71099
71102
71105
71110
71114
71121
71124
71127
71129
71132
71135
71137
71141
71144
71147
71149
71151
71153
71157
71159
71161
71167
71169
71173
71176
71179
71182
71186
71189
71195
71198
71201
71204
71208
71213
71216
71218
71221
71224
71227
71235
71240
71246
71250
71254
71256
71262
71267
71273
71281
71286
71288
71290
71293
71300
71304
71306
71308
71310
71315
71320
71324
71327
71329
71333
71335
71337
71339
71341
71345
71347
71350
71353
71356
71360
71362
71365
71370
71372
71376
71381
71384
71386
71389
71396
71401
71405
71408
71410
71413
71416
71418
71421
71423
71425
71427
71431
71433
71435
71437
71441
71447
71450
71453
71455
71457
71461
71467
71473
71480
71486
71489
71491
71494
71498
71502
71504
71506
71509
71512
71516
71519
71523
71527
71533
71536
71539
71543
71546
71548
71550
71555
71558
71561
71563
71565
71570
71573
71575
71577
71580
71583
71589
71595
71597
71599
71603
71607
71609
71611
71616
71621
71624
71628
71632
71635
71637
71639
71642
71646
71648
71650
71654
71657
71659
71661
71663
71669
71675
71679
71683
71686
71689
71695
71699
71701
71705
71709
71713
71715
71717
71720
71722
71724
71730
71735
71738
71741
71746
71749
71751
71753
71756
71758
71762
71765
71767
71771
71773
71775
71779
71781
71783
71787
71789
71791
71794
71799
71805
71808
71810
71817
71823
71826
71830
71833
71837
71840
71843
71846
71850
71852
71855
71859
71863
71866
71870
71873
71876
71879
71884
71886
71888
71890
71893
71896
71902
71906
71909
71912
71918
71924
71930
71933
71938
71940
71948
71950
71954
71957
71960
71966
71969
71972
71975
71977
71981
71984
71987
71989
71991
71996
71998
72002
72005
72009
72011
72013
72017
72019
72021
72023
72026
72031
72039
72044
72052
72059
72062
72065
72067
72073
72077
72080
72082
72085
72089
72092
72094
72097
72099
72102
72105
72107
72112
72119
72121
72125
72128
72131
72134
72137
72140
72142
72145
72148
72150
72152
72156
72158
72160
72164
72169
72172
72176
72180
72182
72184
72186
72191
72195
72198
72202
72205
72212
72216
72219
72223
72226
72230
72234
72238
72240
72242
72245
72248
72253
72257
72260
